100635,1,94155,891.0346,68.1788,64.5548,16.0202,22.2064,5.0608,-5.0016,485.0083,30.9867,31.1078,7.4797,6.4711,2.616,-2.6036,14.7314,1.1988,0.98089,0.63185,29.6085,0.1018,-0.10175,0.388689,0.108079,0.57725,-0.081783,0.495703,0.201906,0.496124,0.094423,1.470652,0.173168,0.591575,-0.259306,0.346259,0.190892,0.332857,0.214111,0.369791,0.143737,0.270582,0.171429,0
100635,2,94117,891.0037,68.2124,64.5564,16.0393,22.2079,5.0775,-5.018,478.0232,24.8751,23.8671,8.2887,6.7501,2.7757,-2.7649,14.9317,1.1578,0.93897,0.63278,32.2761,0.10653,-0.1064,0.383744,0.105794,0.56837,-0.080101,0.488715,0.199138,0.488928,0.092607,1.463119,0.168619,0.582687,-0.254668,0.341734,0.187511,0.328315,0.210678,0.365013,0.140987,0.26775,0.168111,0
100635,3,80444,899.1047,65.3606,61.7417,16.0692,22.2528,5.0073,-4.958,457.037,11.7792,10.8051,4.2692,3.188,2.1717,-2.1675,15.7259,0.89082,0.69297,0.51479,18.1303,0.090471,-0.090124,0.327238,0.144323,0.579025,-0.109219,0.470944,0.279956,0.470712,0.126306,1.375498,0.226825,0.598586,-0.347328,0.269966,0.255732,0.251697,0.287277,0.301697,0.19231,0.169034,0.2293,0
100681,1,38129,859.1648,86.5809,86.7449,10.7475,27.1961,4.5383,-4.5002,425.9238,20.3206,19.0366,7.6638,6.1978,2.74,-2.7418,16.1584,1.6466,1.5228,0.62493,39.0266,0.11139,-0.11168,0.396981,0.033685,0.456343,-0.0259,0.430353,0.073374,0.430568,0.029719,1.487949,0.050478,0.460596,-0.0816,0.383398,0.06007,0.37902,0.067637,0.390934,0.045031,0.359752,0.0538,0
100681,2,15647,882.6528,139.6154,166.1689,13.2981,30.8619,5.3571,-5.2721,437.6908,38.0923,41.0879,7.5814,6.2638,2.5472,-2.539,16.1684,2.1935,1.8987,0.92769,81.9215,0.11329,-0.11296,0.365918,0.081379,0.505923,-0.059194,0.444796,0.14501,0.447275,0.07144,1.431335,0.134878,0.520011,-0.197491,0.333129,0.145444,0.324406,0.161249,0.35067,0.10977,0.275523,0.130485,0
100681,3,3595,939.1664,50.1558,48.0012,11.2632,22.0552,4.1074,-4.3358,401.9528,8.1466,6.0375,5.2814,4.0123,2.3208,-2.3413,18.6867,0.8159,0.51201,0.59061,38.6559,0.10459,-0.11042,0.259143,0.150899,0.544287,-0.134522,0.409924,0.355803,0.409906,0.142596,1.281521,0.225349,0.552797,-0.388402,0.185457,0.285786,0.157743,0.331023,0.226915,0.207702,0.078355,0.25179,0
100682,1,105319,819.4755,73.4928,72.4002,11.7685,24.3512,5.2483,-5.2446,405.5158,16.4391,15.7745,6.2448,3.5256,2.5284,-2.5198,16.1862,1.5086,1.2098,0.80776,27.1511,0.11491,-0.11571,0.370816,0.042339,0.440392,-0.028396,0.412574,0.089193,0.412562,0.034838,1.449057,0.0625,0.448189,-0.096637,0.356724,0.0712,0.352772,0.078345,0.364468,0.054947,0.327677,0.06461,0
100682,2,105280,819.58,73.4611,72.372,11.8693,25.0131,5.2518,-5.2649,400.3108,11.4398,10.652,4.0386,3.4736,2.1902,-2.1771,16.3587,1.128,0.87457,0.66245,20.0686,0.10667,-0.10696,0.284904,0.140797,0.515231,-0.093581,0.424219,0.289027,0.42364,0.115424,1.320222,0.21004,0.541882,-0.320629,0.23838,0.236279,0.225378,0.259819,0.263921,0.182552,0.141996,0.214402,0
100682,3,93710,824.1505,72.6426,71.4566,11.8106,23.5689,5.2856,-5.2967,436.6344,50.8598,51.8492,8.1997,14.7019,2.5844,-2.5702,15.209,1.4487,1.1224,0.84809,50.166,0.1096,-0.10992,0.141963,0.357521,0.72351,-0.234934,0.493751,0.658757,0.493942,0.291602,1.087901,0.560073,0.793154,-0.811141,0.025277,0.597842,-0.007042,0.656544,0.089262,0.462766,-0.218888,0.542733,0
100683,1,104703,823.4889,71.8697,71.0194,13.1118,23.9431,4.3069,-4.3106,439.409,37.8497,37.7719,7.4263,9.356,2.534,-2.5242,15.072,1.55,1.3097,0.74352,43.2836,0.10045,-0.10025,0.330361,0.132424,0.553192,-0.093089,0.461689,0.268888,0.461441,0.111563,1.387551,0.200805,0.57498,-0.308202,0.283328,0.226996,0.269483,0.25162,0.30927,0.173507,0.191691,0.205182,0
100683,2,4450,590.3767,202.8145,248.45,22.5491,23.4211,6.5874,-6.3544,360.5982,36.3912,37.0646,7.9416,17.3828,1.9307,-1.8897,12.8441,2.9618,1.8425,1.942,117.1053,0.11806,-0.11502,0.278635,0.14295,0.450136,-0.048999,0.410379,0.23109,0.41039,0.085804,1.315915,0.207959,0.510896,-0.2645,0.2586,0.197972,0.255411,0.205657,0.269134,0.168536,0.177407,0.179893,0
100683,3,5686,898.1694,146.2462,158.3113,22.4911,35.5375,7.5149,-7.4977,422.5877,25.51,23.1281,9.2909,8.5762,2.9314,-2.9977,16.9887,2.4308,1.5636,1.7327,50.7679,0.14303,-0.14193,0.380007,0.047581,0.478884,-0.049858,0.42728,0.110955,0.428361,0.049615,1.45961,0.074633,0.478172,-0.135429,0.350106,0.099619,0.337155,0.120202,0.367,0.069187,0.315962,0.08516,0
100724,1,83009,961.8658,155.8331,145.5603,17.9093,53.1088,6.6891,-6.6406,417.8652,26.2649,24.3192,7.0922,9.0859,2.7038,-2.6962,18.3436,2.3089,1.9273,0.96651,95.0848,0.14408,-0.14406,0.296777,0.125806,0.521701,-0.097308,0.423008,0.281275,0.423613,0.112845,1.337555,0.188759,0.538264,-0.311769,0.24318,0.229675,0.225298,0.260881,0.272767,0.170563,0.154807,0.203864,0
100724,2,8813,918.1265,88.2501,88.7673,17.5158,43.4138,5.902,-5.7897,403.6358,11.0208,9.5016,5.8573,3.7534,2.4825,-2.4385,18.1753,1.3968,1.1544,0.79739,88.13,0.13377,-0.13236,0.311391,0.100732,0.501528,-0.089021,0.412217,0.233734,0.41236,0.09525,1.358636,0.151477,0.508094,-0.260207,0.261976,0.191487,0.243431,0.221963,0.289689,0.139064,0.190525,0.168393,0
100787,1,37795,774.629,60.32,60.3478,12.2619,20.8928,5.2327,-5.1651,392.6693,37.5268,37.6127,6.2666,10.6405,2.3373,-2.3058,15.8705,1.4375,1.2088,0.69171,49.2764,0.11825,-0.11855,0.157853,0.303321,0.621336,-0.176192,0.457213,0.60647,0.452642,0.232183,1.136465,0.446312,0.694515,-0.653745,0.075242,0.482438,0.055192,0.520534,0.120207,0.382755,-0.126372,0.441856,0
100787,2,85923,794.6064,70.9464,70.3617,11.6664,23.5599,4.9925,-4.9638,399.6873,12.5859,11.7508,4.6048,3.9687,2.2556,-2.2567,15.884,1.0477,0.8857,0.53603,20.1225,0.10248,-0.10231,0.272827,0.159692,0.525829,-0.099518,0.430182,0.31685,0.429315,0.126825,1.302019,0.238489,0.560233,-0.354535,0.22452,0.261435,0.21187,0.284884,0.250919,0.204503,0.11661,0.238284,0
100787,3,104745,804.0805,96.9458,108.1963,13.0826,24.8564,5.2094,-5.2038,428.8546,26.3125,25.657,7.1846,7.4145,2.7802,-2.762,14.9934,1.3905,1.1832,0.68684,54.869,0.11438,-0.11488,0.316847,0.139297,0.550929,-0.097202,0.454414,0.26783,0.455357,0.118799,1.360173,0.218705,0.577218,-0.330426,0.26445,0.243483,0.249075,0.270835,0.292911,0.185073,0.167804,0.218658,0
100789,1,87157,983.3962,117.806,117.1634,18.2253,46.2371,7.429,-7.3927,418.2061,21.1684,21.0422,3.6185,5.8,2.0743,-2.0912,18.7573,1.4426,1.259,0.67794,77.5418,0.14,-0.13967,0.249518,0.17153,0.587474,-0.164361,0.421584,0.403466,0.422119,0.169504,1.26239,0.261518,0.592516,-0.463179,0.15444,0.34082,0.115537,0.403261,0.208019,0.242318,0.032566,0.295531,0
100789,2,80136,977.9057,114.5,114.7814,18.1309,44.0066,7.2516,-7.2103,410.207,21.8398,21.5998,5.1691,6.1374,2.3428,-2.3474,19.0331,1.5437,1.3167,0.76327,105.0275,0.15162,-0.15119,0.258582,0.155045,0.563192,-0.147857,0.413947,0.370091,0.414526,0.152784,1.277953,0.234716,0.568086,-0.417397,0.173311,0.307133,0.138651,0.362833,0.221346,0.218684,0.063131,0.266602,0
100802,2,53240,887.8214,128.8596,142.793,12.5045,18.384,3.7613,-3.7008,413.0432,35.6477,38.2977,6.6138,3.487,2.2876,-2.2825,17.1343,1.1592,0.97312,0.56775,22.073,0.078477,-0.078306,0.209987,0.228682,0.644088,-0.202091,0.43823,0.492903,0.440912,0.219822,1.192804,0.359931,0.663684,-0.60509,0.091303,0.445349,0.046415,0.51951,0.157247,0.32081,-0.070998,0.388243,1
100837,1,112299,770.3297,118.3376,109.4467,9.802,27.2902,3.9034,-3.871,427.9164,63.0936,62.7109,7.3494,9.7262,2.4825,-2.4709,14.4578,1.5647,1.3116,0.75392,31.1336,0.089475,-0.089833,0.139494,0.374466,0.675855,-0.185923,0.509963,0.681247,0.501603,0.26925,1.106012,0.559726,0.790603,-0.778128,0.051924,0.576477,0.032474,0.615921,0.09891,0.465552,-0.187449,0.526552,0
100837,2,112371,770.0158,118.3067,109.3973,9.9436,27.3209,3.9091,-3.8704,400.5201,19.7322,18.1495,5.5128,3.5587,2.3919,-2.4064,15.3148,1.8303,1.6469,0.56356,31.8873,0.090736,-0.090319,0.290672,0.142676,0.495005,-0.070816,0.430235,0.265794,0.428554,0.102264,1.331033,0.210226,0.538093,-0.295058,0.258051,0.218508,0.25097,0.233004,0.275573,0.176868,0.166793,0.200033,0
100837,3,112376,770.0064,118.3219,109.4134,9.7668,27.2031,3.8843,-3.8529,489.422,103.0737,97.454,8.984,20.3322,2.9442,-2.9304,12.8047,1.4795,1.2688,0.74655,101.4224,0.081378,-0.081703,-0.07751,0.73637,0.953809,-0.348046,0.655757,1.154625,0.630927,0.516162,0.737858,1.171726,1.189737,-1.501969,-0.236773,1.11379,-0.270289,1.183671,-0.151553,0.907335,-0.700883,1.01872,0
100842,1,91687,898.947,101.0265,102.6001,16.6655,38.1394,6.1706,-6.1507,407.4976,37.5225,36.4148,6.1549,7.5172,2.2817,-2.2834,17.682,1.5521,1.091,1.0117,115.6204,0.13739,-0.13753,0.161077,0.27414,0.647016,-0.213114,0.434569,0.615086,0.434905,0.245506,1.135502,0.410069,0.684447,-0.67771,0.043211,0.49902,0.004313,0.565495,0.107976,0.371356,-0.149116,0.44363,0
100842,3,13976,821.0139,81.0914,89.1865,14.2466,31.1269,5.2024,-5.0044,357.9197,19.9746,20.6454,6.3643,4.4186,2.3485,-2.2561,18.3581,1.5186,1.0632,1.0256,76.3716,0.13887,-0.13859,0.277901,0.097861,0.433631,-0.061557,0.372888,0.207514,0.373821,0.077899,1.313324,0.143479,0.454035,-0.217314,0.248291,0.1602,0.240551,0.174547,0.264501,0.125276,0.182018,0.146139,0
100848,1,17325,873.802,84.4292,85.2439,12.3959,26.2898,4.4616,-4.4413,477.9258,22.1773,21.3945,6.601,7.252,2.849,-2.798,14.6073,0.97339,0.72013,0.62027,86.194,0.089759,-0.089762,0.280418,0.226044,0.677933,-0.173401,0.50559,0.41283,0.505593,0.19922,1.292659,0.366766,0.707207,-0.547681,0.189037,0.403233,0.159427,0.454262,0.239704,0.302273,0.03069,0.360855,0
100848,3,12467,1019.8255,453.1948,660.2487,20.0533,23.0018,7.2179,-7.1922,524.1768,120.8464,159.349,9.5467,6.0904,3.5475,-3.4718,15.1363,2.6249,2.4057,1.161,57.1881,0.10482,-0.1046,0.304567,0.216703,0.917416,-0.366223,0.52392,0.454214,0.536043,0.310666,1.237323,0.460047,0.881926,-0.929215,0.012886,0.669891,-0.161944,0.936208,0.180003,0.396914,-0.119597,0.494167,0
100889,1,27399,874.697,73.7806,69.136,13.5478,20.0285,4.9723,-5.0019,408.6069,27.4802,25.4506,7.2434,6.1364,2.4079,-2.4153,17.1493,1.2795,0.88825,0.81248,81.3027,0.12163,-0.12226,0.206204,0.231121,0.587483,-0.155725,0.435401,0.486151,0.434503,0.19106,1.204828,0.343086,0.630032,-0.53045,0.127906,0.390905,0.105621,0.43111,0.170903,0.300907,-0.030713,0.353994,0
100889,2,26785,910.5146,58.2521,57.0599,14.022,17.5065,4.9415,-4.9568,389.0626,19.1658,18.0649,6.1474,5.2162,2.302,-2.3072,18.7357,1.0427,0.67084,0.76819,62.1462,0.11778,-0.11809,0.245627,0.157493,0.529984,-0.128069,0.402166,0.363077,0.402556,0.142682,1.262901,0.233839,0.546281,-0.390523,0.176879,0.287421,0.153428,0.326875,0.215164,0.21298,0.065788,0.255871,0
100889,3,22419,860.0398,116.5505,108.5521,15.0724,27.0434,5.7866,-5.7324,388.5256,18.2709,17.1462,5.0762,5.4975,2.1806,-2.1861,17.6447,1.7685,1.4313,0.84664,57.1913,0.11628,-0.11596,0.273203,0.133984,0.487312,-0.083549,0.405767,0.281399,0.405446,0.106868,1.306254,0.196111,0.515863,-0.299397,0.232277,0.22087,0.22138,0.24135,0.254625,0.17227,0.141715,0.20072,0
100911,1,84584,1021.4601,119.7314,115.5922,17.6151,39.2137,6.1754,-6.1661,474.7382,15.6182,14.3092,5.961,4.595,2.5313,-2.5245,17.1842,1.6658,1.4433,0.73025,65.5182,0.11591,-0.11621,0.373633,0.098988,0.571616,-0.097689,0.472999,0.210847,0.47327,0.099015,1.445987,0.158413,0.572688,-0.270254,0.317091,0.198848,0.293233,0.236836,0.349084,0.140528,0.246774,0.171818,0
100911,2,19196,906.526,72.5556,70.679,16.3796,37.9368,5.6656,-5.6775,453.4205,14.2872,12.7828,6.6888,4.5252,2.6086,-2.6033,15.9933,1.1582,0.79146,0.79742,38.6237,0.11156,-0.11165,0.376074,0.085338,0.529843,-0.068952,0.461118,0.172219,0.46116,0.076947,1.452895,0.133449,0.538659,-0.210599,0.339449,0.155,0.327006,0.176041,0.359871,0.115082,0.279305,0.138155,0
100911,3,44655,1025.907,121.4779,117.3741,17.8362,35.8387,6.1341,-6.1257,477.0848,34.5331,32.1279,7.5008,4.6793,2.6483,-2.6589,17.1977,1.5337,1.2585,0.77156,92.0722,0.11649,-0.11637,0.291798,0.180637,0.657667,-0.182815,0.47216,0.399778,0.473625,0.182929,1.318743,0.286207,0.657309,-0.499306,0.185095,0.367364,0.138811,0.440458,0.245615,0.258015,0.056918,0.316111,0
100914,1,79652,1022.2232,89.9547,86.0862,18.0436,33.6653,5.5346,-5.4504,451.7252,15.1897,14.2381,5.2365,5.1187,2.4101,-2.4096,18.081,1.1696,0.9296,0.64574,71.8233,0.11112,-0.11082,0.29947,0.148915,0.593116,-0.143557,0.448707,0.327451,0.448962,0.14743,1.332115,0.233842,0.596992,-0.402412,0.216389,0.296107,0.182292,0.350526,0.263245,0.210377,0.1106,0.256778,0
100914,2,80468,1021.7333,89.9772,86.1035,18.052,33.3201,5.5027,-5.4584,450.4142,14.5541,13.8549,4.5929,4.4167,2.2507,-2.2511,18.1235,1.1686,0.95275,0.626,71.1477,0.10887,-0.10865,0.300779,0.146423,0.590281,-0.141937,0.447527,0.323745,0.447762,0.145352,1.334462,0.22963,0.5937,-0.396726,0.218477,0.291921,0.184488,0.346057,0.264918,0.207126,0.114476,0.252928,0
100914,3,11074,1038.4695,151.6016,193.5128,19.9924,23.4123,7.1468,-7.1751,477.7346,39.2545,42.5808,8.9868,5.8284,2.9399,-2.8858,17.3907,1.708,1.0921,1.1128,90.7705,0.12989,-0.13087,0.430893,0.045038,0.526127,-0.049925,0.475023,0.07926,0.475981,0.050323,1.525576,0.084748,0.527968,-0.1414,0.394758,0.103387,0.379641,0.126598,0.414545,0.069627,0.363384,0.085466,0
100939,1,83347,1038.1054,109.0364,105.4278,15.8321,43.8899,5.8859,-5.8578,417.59,16.33,15.9051,4.3518,5.1411,2.2439,-2.2453,19.8526,1.5454,1.3067,0.71705,69.2251,0.11937,-0.11953,0.284535,0.128176,0.54119,-0.127018,0.413154,0.306444,0.413427,0.128592,1.315839,0.195232,0.542508,-0.350882,0.210659,0.258169,0.179568,0.30757,0.252427,0.182256,0.119553,0.222961,0
100939,2,77777,1027.0261,103.1596,99.4711,15.7443,41.6588,5.8613,-5.8175,432.5734,22.3572,22.5568,5.5586,6.2341,2.4697,-2.4461,18.9906,1.6039,1.302,0.78043,54.7725,0.12319,-0.12354,0.308742,0.120578,0.54985,-0.119351,0.429334,0.282292,0.4299,0.120791,1.351604,0.185013,0.551114,-0.329502,0.239484,0.242439,0.210302,0.288739,0.278661,0.17126,0.153815,0.209488,0
100939,3,78442,1038.305,105.3812,101.7033,15.9631,45.5528,5.8048,-5.7823,454.2495,26.0835,24.6188,7.3412,8.1178,2.8867,-2.8751,18.3089,1.8257,1.6617,0.78426,93.4946,0.12337,-0.12334,0.364653,0.086294,0.543132,-0.091438,0.45057,0.19564,0.451299,0.08942,1.433778,0.136524,0.541032,-0.243921,0.310353,0.179457,0.285805,0.217562,0.341259,0.124644,0.249245,0.153332,0
100943,1,44612,950.907,94.6296,73.4366,17.4081,20.1318,7.1477,-7.1716,407.3345,27.1236,22.7669,6.001,2.6841,2.5585,-2.5267,18.6491,1.4338,1.033,0.77319,41.7715,0.14797,-0.1487,0.273392,0.140883,0.47843,-0.066607,0.414285,0.351889,0.413236,0.105206,1.322682,0.190022,0.527737,-0.310357,0.232397,0.230723,0.22214,0.251039,0.253837,0.181686,0.142085,0.206229,0
100943,3,6336,721.2015,296.4899,275.4131,19.7384,49.1163,5.3955,-5.6213,347.5,79.0256,80.2938,9.3654,53.2437,2.1479,-2.2031,16.0092,4.0068,3.6782,1.6865,264,0.11233,-0.11445,0.190396,0.216731,0.50308,-0.095195,0.403704,0.431582,0.407867,0.14872,1.196626,0.308157,0.570769,-0.44291,0.148743,0.329874,0.139609,0.35245,0.171036,0.268314,0.015906,0.297491,0
100946,1,70942,947.3746,69.5275,67.7804,18.0167,22.9215,6.3103,-6.2823,461.7604,11.7666,10.7688,4.2311,3.2953,2.2435,-2.2639,16.4015,0.94396,0.66707,0.63337,25.8065,0.11263,-0.11236,0.337057,0.131632,0.58538,-0.116672,0.468607,0.268844,0.468726,0.124477,1.388677,0.209315,0.593676,-0.339621,0.272455,0.249914,0.248282,0.289483,0.3087,0.181557,0.17904,0.219962,0
100946,2,88404,952.1313,69.6092,68.1202,17.8518,23.8286,6.2363,-6.1931,418.0584,20.3257,20.5204,4.4156,4.2925,2.2543,-2.2744,18.2294,1.1669,0.84214,0.7539,71.0643,0.12175,-0.12132,0.266846,0.158815,0.570583,-0.144654,0.425323,0.359657,0.425828,0.15227,1.288104,0.242847,0.578629,-0.415331,0.185806,0.305618,0.1545,0.356377,0.231375,0.220544,0.073046,0.26784,0
100946,3,24231,942.5376,123.1733,102.3558,20.4192,25.3197,7.2681,-7.2978,405.6132,32.5698,30.318,6.4611,6.4945,2.3669,-2.3742,18.5615,1.9891,1.4628,0.98192,66.7521,0.14161,-0.14153,0.263779,0.150083,0.501879,-0.089345,0.413636,0.360628,0.413439,0.12228,1.301359,0.211264,0.541829,-0.348555,0.211086,0.257877,0.196267,0.285205,0.239239,0.198033,0.109937,0.230624,0
100947,1,97216,873.019,85.9668,82.9923,17.4605,36.9362,7.2129,-7.1329,433.1519,14.5044,13.6386,4.6081,4.6105,2.3454,-2.3714,16.0989,1.1994,0.99968,0.61785,31.2692,0.1259,-0.12489,0.306935,0.144578,0.552929,-0.103665,0.450636,0.286518,0.450428,0.123327,1.347979,0.222559,0.575914,-0.340697,0.253495,0.25095,0.23731,0.279519,0.282963,0.190721,0.153173,0.226009,0
100947,2,2024,647.4341,104.1035,104.1333,17.6105,202.4,5.6503,-5.6491,365.4924,28.5497,27.5746,7.7411,119.0588,1.7124,-1.7354,14.0934,1.2986,0.51421,1.2169,337.3333,0.094153,-0.094844,0.235958,0.194167,0.491592,-0.082722,0.420588,0.34727,0.418228,0.127664,1.254422,0.280889,0.559387,-0.376465,0.201611,0.279651,0.195419,0.293067,0.219958,0.233172,0.083496,0.257206,0
100947,3,65063,892.0049,90.6957,87.1944,18.018,35.3219,7.3185,-7.2674,419.5005,15.7868,14.4404,6.0625,5.1263,2.6119,-2.5972,16.9871,1.355,1.0993,0.72327,69.7353,0.15442,-0.15474,0.299532,0.134512,0.530528,-0.098104,0.433327,0.278549,0.433272,0.115749,1.339419,0.204032,0.550887,-0.319422,0.248614,0.23526,0.232914,0.262845,0.276723,0.17813,0.155029,0.211489,0
100949,3,9934,1033.2993,114.201,128.0164,15.2009,29.132,6.4724,-6.3798,524.295,17.6097,16.2242,5.954,5.6733,2.7346,-2.7466,15.7458,1.4086,0.82189,0.68571,25.9373,0.1031,-0.10202,0.378709,0.141465,0.678748,-0.157815,0.520224,0.287918,0.52051,0.151006,1.443219,0.239337,0.672619,-0.413484,0.281691,0.304069,0.235656,0.374302,0.336911,0.208102,0.18221,0.256786,0
101004,1,81497,967.0228,80.2917,77.8526,10.5508,18.0064,3.9845,-4.014,433.5853,13.2812,11.4483,6.6668,3.5973,2.6324,-2.6243,17.8349,1.2835,1.1047,0.56447,34.9173,0.10504,-0.10556,0.343277,0.093361,0.517972,-0.081087,0.436627,0.204385,0.436777,0.08747,1.40425,0.143352,0.524665,-0.238905,0.298692,0.175815,0.28233,0.202874,0.323666,0.12826,0.232488,0.155089,0
101004,2,61966,970.3165,84.4623,81.4606,11.1826,20.7591,4.2486,-4.2849,430.3896,15.4143,14.1383,6.4265,3.9681,2.5731,-2.5623,18.0335,1.4092,1.1673,0.65651,51.7678,0.10535,-0.10603,0.347904,0.084978,0.507011,-0.07385,0.432813,0.187866,0.433037,0.079677,1.41189,0.129962,0.513116,-0.217682,0.307216,0.160199,0.292259,0.184934,0.330002,0.116818,0.246962,0.141255,0
101004,3,29734,977.618,92.4868,89.9631,11.9548,33.8656,4.0474,-4.0676,450.4425,17.3297,15.7958,7.8124,4.8301,2.7822,-2.7559,17.3668,1.5504,1.3209,0.74072,54.7587,0.10958,-0.11011,0.379599,0.072424,0.518811,-0.066307,0.451991,0.158247,0.452273,0.069664,1.459169,0.112531,0.522195,-0.190082,0.342411,0.139874,0.327939,0.163403,0.363336,0.100765,0.290962,0.122425,0
101037,1,85537,898.1888,59.8901,58.378,11.0673,20.3805,3.6543,-3.6308,436.6172,35.4061,35.2399,7.3914,6.6118,2.3715,-2.3741,16.5276,1.3284,1.1086,0.67414,56.4228,0.098466,-0.098287,0.215499,0.246156,0.656094,-0.196365,0.460349,0.513932,0.460721,0.220616,1.207416,0.37964,0.683135,-0.604334,0.11146,0.444817,0.076522,0.504086,0.169404,0.331118,-0.061745,0.396972,0
101037,2,82457,903.8547,64.7876,63.7596,11.7102,22.2917,3.8272,-3.7812,409.2136,10.113,8.9346,4.8653,3.4384,2.2467,-2.2607,17.6574,0.98695,0.8125,0.5325,43.5129,0.095547,-0.095152,0.292534,0.129078,0.52517,-0.104355,0.421341,0.286011,0.421236,0.11651,1.330284,0.194066,0.538635,-0.319015,0.236865,0.234803,0.217891,0.266848,0.267893,0.174225,0.145918,0.209158,0
101042,1,81348,1059.3631,83.3518,76.4491,23.0068,26.6802,5.6749,-5.6456,462.4864,13.7572,12.1556,6.2163,4.0957,2.4308,-2.4247,18.3267,1.361,1.0144,0.78452,83.093,0.11561,-0.11531,0.382638,0.075371,0.533894,-0.07524,0.458021,0.168141,0.458309,0.075858,1.46274,0.118396,0.534441,-0.206973,0.338693,0.152288,0.319967,0.18185,0.363565,0.107314,0.285201,0.131365,0
101042,2,78247,1058.1481,84.6309,77.7637,22.9981,26.4706,5.6618,-5.6299,499.386,35.0444,34.8727,8.7295,9.3878,2.7697,-2.7544,17.0351,1.8142,1.4857,0.90279,150.7649,0.11745,-0.11743,0.533845,-0.032564,0.473294,0.027455,0.499652,-0.054227,0.501022,-0.030392,1.708338,-0.056329,0.470401,0.083264,0.549166,-0.061284,0.554463,-0.070324,0.540664,-0.044822,0.572347,-0.054091,0
101042,3,56013,1075.3993,77.1377,70.2652,23.7001,25.3109,5.9486,-5.9137,461.0553,12.4958,10.8448,5.7423,3.37,2.4587,-2.4578,18.6473,1.0615,0.74216,0.70984,66.6821,0.11924,-0.11909,0.321504,0.12976,0.589551,-0.137608,0.451314,0.296789,0.451554,0.134396,1.366219,0.204239,0.58641,-0.36661,0.239701,0.269724,0.202552,0.32716,0.286275,0.187338,0.147963,0.230442,0
101044,1,98103,881.7515,123.0832,119.4902,16.1772,45.993,6.2086,-6.1321,440.981,21.3113,20.4124,5.3833,6.9048,2.3406,-2.36,15.9477,1.7144,1.4898,0.74528,53.6668,0.1146,-0.11411,0.316638,0.141018,0.555776,-0.099338,0.457152,0.275558,0.457163,0.119866,1.362164,0.218223,0.579597,-0.332486,0.264847,0.245031,0.249165,0.273055,0.293324,0.186267,0.167285,0.220266,0
101044,3,31277,892.5423,149.6343,168.111,17.9486,38.2827,6.8303,-6.7666,432.4482,53.3304,53.5262,7.5696,12.0342,2.6657,-2.6653,16.5089,1.6134,1.1858,0.94908,47.175,0.1248,-0.12453,0.170977,0.293079,0.721316,-0.252638,0.465596,0.655628,0.467371,0.281073,1.135827,0.456659,0.753804,-0.777846,0.018112,0.57233,-0.036215,0.663125,0.101415,0.413826,-0.190572,0.498971,0
101046,1,100431,860.9009,69.643,66.7691,13.6854,22.0534,5.1757,-5.1455,432.4025,19.6676,20.3295,4.8924,3.3326,2.3572,-2.35,15.9304,1.1253,1.0141,0.43084,28.7438,0.099575,-0.099577,0.310964,0.141061,0.546692,-0.097785,0.450008,0.267376,0.450434,0.117977,1.352108,0.219715,0.570708,-0.326403,0.261807,0.240437,0.247511,0.265982,0.288889,0.184302,0.164496,0.217535,1
101046,2,53654,878.0811,59.3677,55.9589,13.4562,14.3498,5.0022,-4.9756,465.9397,16.3995,15.2334,5.394,3.9081,2.4818,-2.4804,15.0654,0.6723,0.52914,0.39539,32.8964,0.098352,-0.098204,0.250994,0.244818,0.669264,-0.177777,0.494422,0.453663,0.493605,0.20932,1.252436,0.388719,0.706032,-0.576785,0.160289,0.424718,0.132677,0.473169,0.21045,0.322652,-0.009857,0.382865,1
101046,3,100400,860.9875,69.6745,66.7864,13.7247,21.8927,5.1719,-5.1432,479.6594,18.9106,18.0925,4.9297,4.9468,2.351,-2.3424,14.3409,0.70622,0.58844,0.37157,43.8619,0.090766,-0.090676,0.254922,0.261025,0.697422,-0.186334,0.514762,0.4676,0.513488,0.221481,1.254426,0.419737,0.738658,-0.611292,0.16021,0.4502,0.131811,0.500378,0.212512,0.343046,-0.020729,0.406288,1
101059,1,79064,645.1354,73.6342,82.3444,9.9698,18.2765,4.2528,-4.1238,458.6138,37.6608,35.8634,7.5137,8.782,3.3839,-3.3023,11.2603,0.95137,0.91993,0.28928,18.4255,0.053666,-0.053057,0.272424,0.288666,0.681347,-0.142228,0.561513,0.464409,0.55143,0.209235,1.288776,0.45615,0.777628,-0.606718,0.201755,0.449492,0.186334,0.480552,0.239093,0.362139,0.015834,0.409747,0
101059,3,103862,666.6676,89.4796,94.2291,10.2649,23.0651,4.4806,-4.3748,470.1121,48.9926,44.1322,7.911,13.4589,3.3713,-3.3314,11.3559,1.0836,1.046,0.39227,29.323,0.063256,-0.062884,0.22103,0.373643,0.714477,-0.160257,0.602687,0.616427,0.576509,0.257385,1.213712,0.582541,0.861814,-0.760349,0.139272,0.564713,0.12265,0.598859,0.182307,0.461348,-0.094241,0.51484,0
101061,1,70723,998.0629,152.7991,147.4471,18.0172,65.1225,6.8696,-6.8865,456.2307,25.0737,22.7645,5.6676,8.3954,2.5549,-2.594,17.4231,1.9472,1.4822,1.1405,56.8513,0.10342,-0.10375,0.302758,0.153621,0.59424,-0.135156,0.457126,0.347357,0.457805,0.149751,1.339509,0.239323,0.609355,-0.412067,0.21946,0.303408,0.186775,0.356706,0.265992,0.216795,0.110395,0.263433,0
101061,2,45408,945.4265,132.2581,130.3038,17.7115,43.6615,6.4793,-6.4809,452.1557,28.0702,27.8944,6.6233,6.8644,2.7453,-2.7628,16.6857,1.7536,1.2657,1.1467,45.2722,0.10987,-0.10973,0.287779,0.173833,0.612773,-0.149688,0.461678,0.359602,0.462467,0.16325,1.313047,0.274188,0.627176,-0.447703,0.203635,0.329567,0.172535,0.381211,0.250605,0.239921,0.080609,0.289756,0
101061,3,18369,965.1332,132.9362,127.1726,18.2049,130.2766,7.0316,-7.0455,474.1593,25.6343,24.1529,8.0369,9.1845,3.0785,-3.1101,16.2254,1.5823,1.1068,1.0474,130.2766,0.10772,-0.10806,0.297845,0.182401,0.633244,-0.151506,0.480486,0.357638,0.481103,0.168534,1.324175,0.292784,0.651427,-0.462995,0.213375,0.340877,0.183408,0.391374,0.260319,0.250036,0.08451,0.300942,0
101063,1,30235,883.5221,134.2884,128.7047,14.8812,37.9837,5.9433,-5.9361,447.2506,30.5184,29.0443,6.8163,6.1155,2.7075,-2.7311,15.7262,1.5414,1.3437,0.67399,55.1734,0.1235,-0.12375,0.263152,0.208254,0.616547,-0.146136,0.471301,0.406388,0.471059,0.176583,1.279763,0.322357,0.651435,-0.490011,0.187544,0.361136,0.164765,0.402167,0.229121,0.274799,0.043532,0.324755,0
101063,2,88640,928.5214,127.1225,120.5611,15.1057,42.1694,6.0566,-6.0177,416.1161,14.5534,12.927,6.365,4.5681,2.7222,-2.6944,17.8262,2.2164,1.9402,0.88464,93.8983,0.14058,-0.14108,0.35253,0.06848,0.475943,-0.054501,0.421144,0.151604,0.421276,0.061946,1.420437,0.103157,0.483943,-0.170378,0.322728,0.12546,0.312618,0.142784,0.339248,0.09292,0.274468,0.111414,0
101063,3,44941,894.8414,121.6106,114.577,15.1907,39.806,5.7062,-5.6715,449.8547,31.5362,28.7869,6.6058,8.234,2.595,-2.6092,15.8533,1.3378,1.1099,0.65384,44.3643,0.11238,-0.11207,0.248148,0.225055,0.632307,-0.160703,0.472664,0.442522,0.472542,0.192378,1.256218,0.348821,0.668678,-0.532761,0.164387,0.392555,0.138814,0.438083,0.210499,0.297805,0.008303,0.352712,0
101144,1,78268,982.6016,77.9135,74.0839,13.9236,21.729,5.7436,-5.718,460.5895,26.882,25.4462,5.0799,7.6381,2.309,-2.3225,17.0826,1.1977,0.94209,0.69841,47.5216,0.10572,-0.10542,0.265751,0.198294,0.642236,-0.177525,0.463738,0.426022,0.464398,0.188657,1.281036,0.309941,0.653825,-0.514937,0.166771,0.37894,0.129192,0.44034,0.222342,0.274435,0.026026,0.332781,0
101257,1,92153,919.8484,117.0635,115.0983,14.9958,50.773,5.2826,-5.2293,461.6038,24.1643,23.5497,4.6419,8.2279,2.3067,-2.3074,15.8889,1.3343,1.1815,0.5667,33.559,0.09557,-0.095067,0.281614,0.195712,0.635654,-0.157616,0.477581,0.387462,0.477829,0.177562,1.302001,0.309981,0.657387,-0.488012,0.195655,0.359313,0.166078,0.409653,0.243401,0.265746,0.057809,0.318831,0
101257,2,91982,919.5795,116.9784,115.0036,14.9667,49.0048,5.2646,-5.2058,472.934,23.0955,22.3787,5.4741,8.4839,2.4931,-2.5045,15.505,1.3459,1.1946,0.5655,38.2144,0.099565,-0.09925,0.301983,0.185946,0.638058,-0.149488,0.488165,0.35878,0.488389,0.168545,1.331246,0.2979,0.658835,-0.463246,0.220535,0.34108,0.19257,0.388709,0.26577,0.252369,0.089583,0.302732,0
101257,3,17910,838.7244,59.0148,55.7007,13.4055,19.0532,5.1434,-5.2122,459.5066,13.2218,10.4208,7.9697,4.6219,3.0223,-3.0444,14.6014,0.93086,0.65522,0.55582,64.657,0.11096,-0.11132,0.379912,0.094745,0.53184,-0.060536,0.47315,0.168522,0.472906,0.076086,1.458291,0.148959,0.551129,-0.211979,0.350449,0.156248,0.342599,0.170684,0.366586,0.121753,0.286065,0.142325,0
101278,1,114324,753.3167,80.8218,79.6537,8.6146,27.9726,3.1125,-3.042,388.838,40.7723,40.0246,5.7423,8.7204,2.2613,-2.233,15.5907,1.7028,1.4831,0.69147,35.058,0.0876,-0.088119,0.203556,0.24593,0.550884,-0.120721,0.439682,0.444873,0.43913,0.174194,1.201506,0.364997,0.625915,-0.502046,0.149582,0.37164,0.138478,0.394365,0.178542,0.302723,-0.007229,0.341632,0
101278,2,29281,807.1895,59.3569,60.6205,9.682,15.9569,3.3091,-3.2831,395.8145,43.3049,41.3722,4.9486,5.0019,2.0331,-2.0506,16.4309,1.3698,1.1463,0.72138,44.1644,0.082738,-0.082736,-0.091139,0.602989,0.902979,-0.407931,0.520735,1.300582,0.50325,0.497971,0.769925,0.887917,1.012126,-1.380216,-0.294171,1.016848,-0.351699,1.120266,-0.182496,0.783555,-0.70829,0.922198,0
101278,3,3158,873.0083,31.1224,28.6733,10.4229,14.757,4.0009,-3.938,435.5158,5.1624,3.4723,3.8869,3.2896,2.0325,-2.0464,16.0355,0.51457,0.18833,0.4645,17.163,0.082523,-0.081546,0.348294,0.099866,0.521871,-0.075376,0.447445,0.199677,0.447292,0.086794,1.411056,0.154254,0.534999,-0.238209,0.309658,0.175341,0.297483,0.196368,0.331119,0.132337,0.239877,0.157716,0
101282,1,100751,838.961,83.9444,83.1149,11.2338,28.6143,4.5571,-4.5218,439.3126,38.106,38.2291,8.005,11.0715,2.493,-2.4848,15.3467,1.6576,1.4364,0.77807,57.1475,0.10497,-0.10532,0.298126,0.168254,0.574191,-0.112168,0.462415,0.305175,0.46421,0.138411,1.329915,0.265589,0.606005,-0.384572,0.241964,0.283412,0.22623,0.311953,0.272764,0.218643,0.126621,0.256921,0
101282,2,82506,841.4102,89.323,88.9862,11.6726,33.6622,4.7664,-4.7584,389.5592,15.2504,14.3094,5.3401,4.3443,2.351,-2.3355,17.2452,1.3046,1.1346,0.60785,34.164,0.11107,-0.11133,0.264404,0.148725,0.513049,-0.102901,0.411919,0.318773,0.411672,0.124601,1.291313,0.220064,0.538864,-0.34517,0.212169,0.254306,0.196915,0.281604,0.240904,0.194714,0.109572,0.229786,0
101282,3,63589,861.0861,93.6701,93.4,12.1225,24.8104,4.8764,-4.8591,422.9616,28.7955,27.8086,7.7107,10.2995,2.7911,-2.7837,16.2599,1.0156,0.68052,0.65825,23.5515,0.11626,-0.11692,0.176962,0.2856,0.660045,-0.202235,0.460976,0.573612,0.460266,0.242097,1.150931,0.436733,0.706886,-0.66949,0.073281,0.493176,0.042259,0.548229,0.130407,0.375775,-0.124493,0.444647,0
101287,1,110143,762.6061,70.9858,70.5608,14.972,26.5341,5.3572,-5.3117,409.1192,15.5849,14.8209,4.9819,5.1201,2.477,-2.4665,14.8896,0.94908,0.76729,0.55154,53.886,0.10581,-0.10545,0.256274,0.200434,0.56491,-0.117954,0.453441,0.377124,0.451651,0.154846,1.274942,0.302572,0.61281,-0.435746,0.200037,0.321564,0.186109,0.347917,0.230627,0.254134,0.066306,0.293932,0
101287,2,110094,762.5929,70.9824,70.5521,15.0263,26.4904,5.3875,-5.3545,408.7343,16.9065,15.5619,6.9973,6.0805,2.8086,-2.7855,14.9129,1.0646,0.87311,0.60766,53.9148,0.12781,-0.12758,0.278549,0.170724,0.541392,-0.100437,0.446159,0.322025,0.444956,0.131859,1.308845,0.257403,0.582185,-0.371047,0.230701,0.273816,0.218865,0.29622,0.256729,0.216428,0.116797,0.250313,0
101287,3,110105,762.594,70.9781,70.5528,14.9742,26.1222,5.3855,-5.3321,425.0671,18.7363,17.6971,6.5281,6.2446,2.6767,-2.6791,14.3375,0.96438,0.78623,0.55305,92.4475,0.11219,-0.11182,0.2702,0.203089,0.583138,-0.119678,0.469909,0.368614,0.468195,0.157004,1.292542,0.311349,0.631571,-0.441756,0.213107,0.325994,0.198947,0.352774,0.244165,0.257569,0.077563,0.297956,0
101304,1,9120,778.1959,198.1309,294.1063,14.631,16.5517,4.811,-4.9055,426.1578,42.9869,46.4275,8.3099,12.2252,2.7415,-2.7411,14.4785,1.8777,1.096,1.085,63.3333,0.08571,-0.086467,0.384557,0.05327,0.53325,-0.08175,0.443773,0.173537,0.446109,0.076803,1.466645,0.084749,0.526167,-0.216503,0.322041,0.158285,0.289932,0.21064,0.357409,0.096268,0.281483,0.123066,0
101304,3,117800,708.4802,106.633,109.0346,8.8864,30.0051,3.0622,-2.994,407.3782,37.5816,38.2714,6.5627,9.37,2.3051,-2.2903,13.8542,1.065,0.82829,0.53564,75.2235,0.067937,-0.067566,0.19948,0.293359,0.595006,-0.130238,0.48472,0.502216,0.478527,0.20076,1.190485,0.442318,0.699707,-0.590944,0.13809,0.43892,0.125953,0.464246,0.17037,0.360236,-0.044192,0.40092,0
101336,1,100534,858.529,90.2884,88.4829,16.7436,48.1946,6.4288,-6.3947,394.23,14.5456,13.7364,4.6994,5.033,2.3755,-2.3839,17.3874,1.318,1.096,0.69307,45.123,0.12944,-0.12903,0.266579,0.14868,0.519467,-0.106505,0.41438,0.321366,0.414133,0.12658,1.293972,0.220633,0.542878,-0.34956,0.212081,0.257464,0.195618,0.286584,0.24216,0.195853,0.108945,0.23204,0
101336,2,100336,859.8364,92.6875,91.4266,16.7806,48.4014,6.3901,-6.3443,399.1445,16.6392,16.0271,4.7103,5.254,2.2998,-2.3218,17.1958,1.2725,1.0334,0.70743,41.4783,0.12897,-0.1284,0.252554,0.170481,0.543535,-0.122932,0.422123,0.364533,0.421864,0.145706,1.271916,0.254504,0.570021,-0.402291,0.189327,0.296299,0.170077,0.330267,0.224226,0.225012,0.070942,0.266783,0
101336,3,11700,844.8606,52.8905,49.3265,16.1966,27.5943,6.2857,-6.2108,383.2448,8.9946,7.989,4.1409,3.8285,2.1934,-2.204,17.6264,0.85121,0.50705,0.66525,54.4186,0.13264,-0.13174,0.257519,0.148742,0.503386,-0.101283,0.404632,0.322164,0.404096,0.123079,1.282817,0.218014,0.529725,-0.340777,0.20722,0.251031,0.192904,0.27669,0.234919,0.193314,0.104977,0.227685,0
101338,1,102872,837.4596,133.3777,135.1562,14.6931,52.5662,5.7463,-5.7292,409.6267,21.5666,20.5398,6.2864,8.2055,2.5661,-2.5474,16.3084,2.0932,1.8621,0.92988,51.4875,0.11903,-0.11941,0.312383,0.11609,0.508648,-0.08111,0.428178,0.24249,0.428186,0.098511,1.360367,0.174582,0.528943,-0.273576,0.269947,0.201636,0.257218,0.224512,0.293235,0.153387,0.189632,0.181254,0
101338,2,100607,833.0722,130.7533,132.593,14.6315,51.5405,5.7244,-5.7208,391.7343,20.4093,19.9599,4.8478,6.7567,2.3117,-2.3369,16.9433,1.9669,1.7381,0.8977,41.9021,0.11915,-0.11935,0.275369,0.139648,0.509405,-0.095951,0.414481,0.298988,0.414459,0.11757,1.307119,0.207297,0.534959,-0.327063,0.225295,0.241104,0.210481,0.267837,0.25273,0.183973,0.12899,0.21696,0
101338,3,3200,1038.957,122.5833,117.9415,20.3803,86.4865,6.1813,-6.255,472.1732,38.6855,37.1431,10.6589,61.5385,2.7774,-2.8973,17.6166,1.6797,0.89866,1.4055,640,0.12696,-0.12437,0.268353,0.195063,0.652508,-0.187025,0.462802,0.414049,0.464419,0.192521,1.279683,0.311029,0.6578,-0.525727,0.160576,0.386833,0.116539,0.45743,0.221327,0.275216,0.022011,0.33567,0
101362,1,5669,873.2529,34.8861,32.0987,10.2113,10.2329,3.7785,-3.7012,430.8736,8.4674,5.9451,5.7505,2.8106,2.4816,-2.4565,16.2149,0.60442,0.38814,0.42316,18.7096,0.09236,-0.09218,0.349661,0.092824,0.509573,-0.068792,0.441831,0.18875,0.441596,0.079967,1.41455,0.14185,0.522533,-0.219785,0.314608,0.161797,0.303759,0.180659,0.334049,0.122566,0.24992,0.145771,1
101362,2,44782,837.5526,81.2698,82.6605,10.2392,23.5695,3.714,-3.7095,388.4126,29.8737,29.6337,7.1672,18.1524,2.104,-2.0812,17.3176,1.8307,1.5904,0.86639,153.363,0.10535,-0.10583,0.294949,0.111572,0.473358,-0.070574,0.402487,0.21221,0.404625,0.089435,1.332795,0.170116,0.496508,-0.24907,0.260728,0.183565,0.252022,0.199864,0.279395,0.143312,0.184677,0.167512,1
101379,1,100723,841.1044,112.1536,112.9803,10.7454,27.5878,3.7414,-3.7043,404.1188,34.638,34.5999,5.7229,14.3154,2.085,-2.0721,16.6789,1.9662,1.8398,0.69203,66.9701,0.095184,-0.095347,0.272823,0.156099,0.535234,-0.108436,0.426801,0.320886,0.427972,0.131422,1.300672,0.235656,0.562339,-0.364723,0.217079,0.268787,0.200474,0.298571,0.24773,0.205183,0.10941,0.242169,0
101379,2,16053,709.5309,49.4243,50.0897,8.3196,13.1798,3.1309,-3.0811,369.4551,11.3082,9.042,6.2822,3.3846,2.8842,-2.8717,15.3644,0.95982,0.76607,0.54057,26.2304,0.10812,-0.10799,0.314291,0.077721,0.42808,-0.041468,0.389269,0.152981,0.389061,0.056902,1.366959,0.112826,0.449096,-0.161808,0.295734,0.119542,0.291643,0.127593,0.305791,0.096416,0.245194,0.109991,0
101390,1,6625,937.5954,94.7389,98.2995,17.085,23.6607,5.9784,-6.023,428.8866,18.7161,17.6068,6.0769,4.5533,2.5446,-2.5432,17.5006,1.68,1.0526,1.2415,56.1441,0.12022,-0.12035,0.474678,-0.04876,0.381618,0.0442,0.425435,-0.10999,0.425853,-0.046692,1.605816,-0.074538,0.378968,0.127433,0.4995,-0.093776,0.509058,-0.109295,0.485554,-0.067706,0.534111,-0.08219,1
101390,3,22775,904.2037,59.5148,56.7747,12.4176,16.2447,5.0919,-5.0973,482.4844,24.6481,22.6506,7.2687,6.7442,2.7737,-2.7642,15.007,0.91624,0.70232,0.55251,51.1798,0.10368,-0.10363,0.308878,0.192023,0.643764,-0.145276,0.500059,0.36205,0.499701,0.167758,1.343817,0.306124,0.669491,-0.461184,0.233162,0.339545,0.209047,0.38121,0.275137,0.25555,0.098933,0.30463,1
101396,1,115503,745.89,126.5823,122.4285,14.0876,57.5501,5.2212,-5.2004,370.1549,25.3394,24.9212,4.9288,7.8021,2.2856,-2.2924,16.0292,1.8668,1.6397,0.72351,46.4801,0.11724,-0.11753,0.234052,0.182466,0.492343,-0.088538,0.411397,0.351393,0.40994,0.129478,1.251202,0.264405,0.549359,-0.374994,0.193356,0.277864,0.184684,0.295778,0.215161,0.225606,0.077348,0.254315,0
101396,2,116020,745.4013,126.6881,122.5441,14.1713,57.1809,5.2849,-5.2232,389.0194,25.1902,24.391,6.5288,8.885,2.7813,-2.7925,15.2436,1.8216,1.5958,0.71378,38.8027,0.12327,-0.12325,0.253843,0.18134,0.51036,-0.08786,0.43,0.332025,0.428618,0.128582,1.276416,0.267746,0.567111,-0.372482,0.213487,0.276011,0.204902,0.29376,0.235107,0.224157,0.098244,0.252626,0
101399,1,94750,879.6872,116.9036,114.5818,13.5114,43.3638,5.148,-5.1153,403.0504,17.554,16.8862,4.9475,5.9915,2.4392,-2.4412,17.4121,1.7741,1.5554,0.712,55.5718,0.11248,-0.11291,0.293743,0.124208,0.506623,-0.089648,0.417481,0.265675,0.417534,0.10652,1.333234,0.185652,0.525964,-0.294515,0.247223,0.216963,0.232936,0.2423,0.272877,0.16443,0.160938,0.194965,0
101399,2,94735,879.4314,115.9211,113.572,13.4889,43.3967,5.2174,-5.1598,404.1977,14.8612,13.9927,4.9611,5.2804,2.342,-2.3334,17.3584,1.8061,1.6245,0.69524,52.1381,0.1116,-0.11152,0.30799,0.109385,0.496139,-0.079537,0.417051,0.234245,0.417053,0.094157,1.354347,0.163631,0.512843,-0.2602,0.266585,0.191676,0.253765,0.214342,0.289432,0.145036,0.190518,0.172112,0
101399,3,5426,959.1521,57.0149,53.3515,16.0858,18.5822,5.5371,-5.5857,419.7236,10.8579,9.623,4.6412,3.2569,2.2998,-2.313,18.2764,0.87843,0.43217,0.59062,31.9176,0.11355,-0.11644,0.32877,0.094599,0.507233,-0.083985,0.423269,0.217647,0.42332,0.089468,1.384322,0.142812,0.513095,-0.244012,0.282305,0.179556,0.264893,0.207999,0.308385,0.13044,0.215182,0.15806,0
101471,1,67289,924.4051,72.7937,70.949,11.5059,19.7386,4.1432,-4.0784,481.5119,15.0753,13.1903,6.8172,4.5675,2.7081,-2.7357,15.3451,0.9213,0.77608,0.45898,19.6121,0.093533,-0.093461,0.341107,0.151857,0.614,-0.121803,0.492632,0.28738,0.492611,0.136684,1.392497,0.244656,0.630447,-0.374561,0.276115,0.275708,0.254119,0.313013,0.312302,0.20481,0.169184,0.245685,0
101477,1,107047,807.6162,86.4576,83.7432,12.8038,32.968,5.2626,-5.2402,425.7679,45.2405,47.4851,6.89,8.788,2.4629,-2.4502,15.2123,1.1993,0.97674,0.6504,32.3894,0.10795,-0.10778,0.119371,0.379409,0.710866,-0.227732,0.492052,0.684226,0.49066,0.296163,1.057524,0.587991,0.798066,-0.832003,0.009965,0.613895,-0.017791,0.666273,0.069559,0.483144,-0.244272,0.560182,0
101477,3,21055,785.7108,61.8002,59.3793,11.9165,18.1509,4.8229,-4.7736,413.0359,12.6535,11.6139,4.6442,3.5033,2.3626,-2.3382,15.2004,0.84292,0.66321,0.4685,20.8879,0.09159,-0.091251,0.26444,0.189058,0.551413,-0.108145,0.449971,0.353564,0.448035,0.143677,1.28825,0.284066,0.598073,-0.405401,0.21399,0.299252,0.201909,0.32238,0.241418,0.238009,0.088801,0.274181,0
101496,1,80906,976.2615,53.911,53.3466,9.7121,16.0051,3.847,-3.7785,450.4055,11.8813,10.0333,6.2198,4.1291,2.562,-2.5202,17.3456,0.95048,0.8422,0.42416,40.9443,0.096751,-0.096981,0.410424,0.040954,0.490369,-0.038911,0.451279,0.090297,0.451419,0.039983,1.506743,0.063833,0.491429,-0.10876,0.388569,0.080022,0.379797,0.094067,0.400926,0.057267,0.359433,0.069838,0
101496,2,86736,975.8648,59.8,56.3283,9.8318,16.2123,3.8956,-3.8129,427.0541,13.6301,11.0856,5.6028,3.6683,2.4448,-2.4175,18.2756,0.91148,0.75099,0.45242,53.5738,0.10141,-0.1018,0.315024,0.114715,0.539832,-0.109837,0.429716,0.271565,0.429872,0.112466,1.362412,0.174549,0.542415,-0.305932,0.253084,0.22509,0.22802,0.265118,0.288116,0.160759,0.171465,0.196182,0
101496,3,86273,976.6103,55.2009,54.6969,9.9186,16.2289,3.904,-3.826,462.3451,28.1902,26.0105,7.4473,6.3778,2.6722,-2.6492,16.9739,1.5737,1.5014,0.58468,29.8316,0.098356,-0.098311,0.519596,-0.058624,0.404098,0.056728,0.459855,-0.136972,0.460894,-0.057907,1.675736,-0.089414,0.402822,0.157849,0.552113,-0.116146,0.565563,-0.137489,0.533728,-0.082596,0.593711,-0.100833,0
101498,1,72850,1173.2179,79.8276,78.5617,20.9745,27.4491,7.9006,-7.8346,460.9899,25.4785,25.1284,5.2724,8.6193,2.407,-2.4067,20.4025,1.5563,1.3154,0.75936,80.6755,0.15186,-0.15155,0.336742,0.105896,0.58417,-0.143997,0.441271,0.267144,0.441393,0.124046,1.388113,0.168795,0.567103,-0.342161,0.243718,0.251494,0.188813,0.330311,0.297887,0.163437,0.172666,0.204352,0
101498,2,69644,1177.1344,78.3247,76.8881,20.9768,26.0644,7.9129,-7.8538,501.2153,12.4784,11.3799,4.6886,3.8905,2.3081,-2.3249,18.7797,1.0147,0.81039,0.5807,75.5358,0.13206,-0.13156,0.370268,0.111241,0.630809,-0.152028,0.4804,0.260872,0.480126,0.130685,1.434565,0.183739,0.612649,-0.360757,0.271715,0.265133,0.213213,0.348963,0.329113,0.172016,0.197262,0.215118,0
101498,3,72760,1173.0348,80.4394,79.1434,21.2922,27.1898,7.872,-7.7691,445.7151,19.6338,19.542,5.7024,4.144,2.3834,-2.3969,21.069,1.3585,1.0507,0.76987,86.4133,0.15825,-0.1573,0.304377,0.120481,0.583373,-0.160887,0.42409,0.309304,0.423634,0.139934,1.339431,0.189649,0.565315,-0.385562,0.200898,0.28341,0.141118,0.369692,0.261019,0.185099,0.119554,0.231187,0
101518,1,93738,895.2151,104.3733,103.123,18.4392,50.6418,6.3961,-6.3909,492.52,23.0025,21.5104,8.0908,7.1758,3.2623,-3.2421,14.5077,1.1951,0.98444,0.64543,61.0273,0.11302,-0.11266,0.316851,0.196196,0.66527,-0.152836,0.512809,0.355995,0.512893,0.174897,1.349161,0.321325,0.68996,-0.481089,0.234761,0.354244,0.207558,0.400951,0.280266,0.264109,0.097029,0.315847,0
101518,2,93465,897.5751,105.7025,104.6069,18.3415,50.4671,6.3127,-6.2978,447.7333,20.6638,20.009,5.653,5.8942,2.5905,-2.6027,15.9958,1.2879,1.0753,0.67732,33.8887,0.11734,-0.1168,0.283871,0.182526,0.607984,-0.142126,0.466072,0.361564,0.466274,0.162719,1.307707,0.286707,0.631046,-0.447677,0.207459,0.329646,0.182134,0.373137,0.249807,0.245754,0.079337,0.293874,0
101518,3,94087,895.3697,104.2536,102.9167,18.4442,50.1263,6.4093,-6.4101,492.6881,24.825,23.3989,8.0044,8.9778,2.9607,-2.9607,14.5091,1.2091,0.9968,0.65433,56.7473,0.11527,-0.11516,0.315782,0.197541,0.666021,-0.153383,0.512981,0.358117,0.513133,0.175807,1.347514,0.323491,0.691147,-0.483657,0.233517,0.356137,0.206361,0.402822,0.279106,0.265719,0.094883,0.317668,0
101546,1,54893,1124.0664,85.7725,83.7419,15.9578,28.1503,5.6648,-5.6265,427.8729,12.7895,12.1235,3.7623,4.348,2.1265,-2.1198,20.9991,1.2033,0.88352,0.73477,66.0566,0.11567,-0.11534,0.287661,0.124738,0.560267,-0.148132,0.412339,0.318648,0.412215,0.136567,1.318771,0.19158,0.549618,-0.373578,0.196382,0.274773,0.149774,0.344448,0.248887,0.185383,0.109492,0.229901,0
101546,2,77213,1119.0027,89.502,86.5986,15.1185,27.0164,5.551,-5.5518,429.9109,10.5417,9.7322,3.7863,3.8564,2.1277,-2.1534,20.804,1.3261,1.0372,0.7258,60.4644,0.11249,-0.11295,0.322675,0.095827,0.527825,-0.108979,0.418598,0.240067,0.418607,0.102923,1.372468,0.147212,0.522099,-0.281358,0.256044,0.206964,0.223599,0.25616,0.294178,0.14109,0.188818,0.174446,0
101546,3,77184,1118.9811,89.6494,86.7511,15.0716,27.0347,5.5542,-5.5696,454.2924,27.8822,27.5481,7.2053,6.7968,2.5521,-2.5608,19.794,2.0936,1.7198,0.94427,89.5406,0.12953,-0.12942,0.542818,-0.079109,0.36686,0.097308,0.462485,-0.179463,0.464006,-0.088475,1.72077,-0.12966,0.374681,0.242965,0.604378,-0.17866,0.637117,-0.227003,0.56892,-0.119154,0.658922,-0.148064,0
101549,1,82233,970.1491,67.0467,64.3398,13.6676,22.1652,5.2684,-5.2642,419.1123,23.135,22.7372,6.6088,5.2368,2.3366,-2.3141,18.5467,1.3026,0.97149,0.79854,77.3594,0.12482,-0.1248,0.275687,0.147809,0.553735,-0.130108,0.423036,0.336642,0.423576,0.139208,1.303816,0.223843,0.563328,-0.379878,0.204024,0.279545,0.177329,0.32338,0.244238,0.203435,0.099196,0.246292,0
101549,2,36286,1009.8594,68.2466,61.2196,15.3425,21.7803,5.1913,-5.2109,473.6781,25.8221,23.504,5.6959,4.1484,2.3032,-2.3369,17.0857,1.2874,0.9868,0.72984,31.281,0.10446,-0.10484,0.326929,0.145136,0.594738,-0.12205,0.47144,0.31846,0.472326,0.138914,1.377707,0.226193,0.613548,-0.383977,0.250023,0.282995,0.221144,0.329916,0.292554,0.203787,0.147602,0.246493,0
101559,1,26068,726.5669,340.9296,303.8989,18.9871,3.1701,7.537,-7.552,379.8972,131.1047,114.935,8.7256,3.3081,2.7421,-2.7674,14.5468,2.4776,2.1382,0.9917,3.3318,0.11746,-0.11631,0.099924,0.384169,0.609199,-0.12619,0.485002,0.704272,0.484841,0.235084,1.074232,0.549298,0.760298,-0.746729,0.044169,0.562157,0.033387,0.594266,0.072821,0.467953,-0.168841,0.496572,0
101559,2,50152,846.089,303.514,235.6795,19.6594,5.5435,6.4543,-6.4503,411.2068,108.2279,87.7954,8.6556,5.8561,2.6532,-2.6613,15.9359,2.8655,2.2549,1.4176,5.9513,0.12934,-0.12866,0.115689,0.348749,0.586913,-0.119032,0.465884,0.6638,0.467355,0.218473,1.097378,0.495398,0.72093,-0.689642,0.059838,0.518652,0.048587,0.550582,0.088386,0.428534,-0.136418,0.457966,0
101559,3,21837,685.2224,454.0996,478.925,25.6679,2.2296,10.1666,-10.1493,345.5135,150.0968,149.4793,8.8087,2.3471,2.7659,-2.8399,14.4769,3.5065,3.2767,1.3206,2.3628,0.13445,-0.13104,0.116468,0.332137,0.626559,-0.131924,0.45998,0.658295,0.47748,0.229007,1.094644,0.484858,0.735519,-0.713549,0.051845,0.535098,0.036315,0.582145,0.085149,0.427013,-0.145727,0.466427,0
101584,1,85761,993.9853,38.8642,35.6779,15.298,12.2533,4.9848,-4.9329,457.3036,8.0757,6.864,4.1601,2.6496,2.1888,-2.1719,17.3886,0.6068,0.46669,0.37996,28.6252,0.097803,-0.097749,0.346019,0.111955,0.566546,-0.108466,0.457958,0.241491,0.458028,0.110318,1.404099,0.176819,0.568421,-0.300079,0.284621,0.220789,0.259381,0.260866,0.319394,0.157262,0.205052,0.192077,0
101584,3,33629,995.0427,64.2748,50.869,14.7063,10.3125,4.1797,-4.0853,454.6942,18.2899,15.256,4.3449,2.6015,2.1784,-2.1896,17.4911,0.7156,0.53662,0.37252,26.7534,0.082228,-0.08152,0.188579,0.267112,0.625261,-0.16912,0.455713,0.559038,0.455955,0.218756,1.179915,0.397514,0.683016,-0.617278,0.097794,0.455993,0.071878,0.504393,0.14685,0.350551,-0.083164,0.409304,0
101608,1,87904,978.1021,69.1207,68.2476,12.2189,23.3477,5.4212,-5.5205,400.6148,11.9912,10.6089,5.6864,3.6691,2.4224,-2.4131,19.5285,1.1854,0.93529,0.68115,40.1205,0.12664,-0.12735,0.309504,0.093148,0.4887,-0.085802,0.402639,0.226715,0.402785,0.089743,1.357438,0.13844,0.492761,-0.244578,0.261442,0.179964,0.242716,0.21026,0.288506,0.129588,0.195244,0.15756,0
101608,2,87843,978.2119,69.273,68.4333,12.2773,23.0801,5.3546,-5.4439,392.7603,9.3941,8.2849,4.2748,3.0678,2.2006,-2.1861,19.9114,1.1077,0.90125,0.61688,40.332,0.11668,-0.11695,0.285222,0.10993,0.49881,-0.103312,0.395234,0.272784,0.395335,0.106976,1.321877,0.162793,0.50256,-0.291468,0.226896,0.214463,0.203657,0.251797,0.259796,0.153681,0.148764,0.187183,0
101608,3,17648,962.2132,49.854,48.7073,12.2409,16.2355,5.542,-5.5693,412.412,12.767,10.4528,7.5597,4.4197,2.8552,-2.8211,18.6765,1.018,0.72081,0.70402,56.2038,0.13761,-0.13949,0.350607,0.064212,0.472705,-0.057921,0.414663,0.151167,0.414805,0.061108,1.417954,0.096234,0.476051,-0.16648,0.318597,0.122498,0.306397,0.142336,0.33661,0.088729,0.273002,0.107679,0
101619,3,20738,716.3097,45.7493,43.1817,9.5436,12.5457,3.3715,-3.3731,398.6764,31.7724,31.4824,7.1743,8.5062,2.1299,-2.1254,14.4221,0.98986,0.56649,0.78961,59.4212,0.086579,-0.087082,0.06194,0.470195,0.71156,-0.223459,0.520429,0.804322,0.507927,0.325916,0.984086,0.707272,0.859735,-0.942937,-0.03503,0.69833,-0.054219,0.737612,0.017062,0.573344,-0.331201,0.643368,0
101624,1,20190,1019.7406,90.3964,83.038,18.6682,37.0459,7.1061,-7.1207,485.1348,39.3515,37.8889,9.1171,26.3233,2.6169,-2.6009,16.9383,2.1498,1.51,1.4436,354.2105,0.14124,-0.14207,0.547419,-0.060934,0.424199,0.061953,0.484588,-0.114854,0.486331,-0.062005,1.730921,-0.102988,0.424044,0.169327,0.584198,-0.124601,0.600236,-0.149663,0.563363,-0.087307,0.627344,-0.107033,0
101624,2,3068,1068.015,170.1293,125.8685,20.899,51.1333,7.5821,-8.4303,437.3836,33.0747,28.4688,7.0151,6.3651,2.5693,-2.8245,19.4102,2.3691,0.46181,1.2099,133.3913,0.14485,-0.15544,0.064476,0.339543,0.778267,-0.373043,0.399814,0.94019,0.404308,0.359421,0.999633,0.500647,0.765661,-0.982553,-0.163523,0.722848,-0.270708,0.886513,-0.033652,0.496595,-0.402514,0.612507,0
101624,3,14336,1070.995,93.7234,82.2203,20.3178,25.4184,7.9235,-8.0716,446.8281,18.2465,16.698,6.1383,3.7956,2.5223,-2.5095,19.1784,1.5861,0.91593,1.0529,45.5111,0.16354,-0.16569,0.35048,0.08968,0.527962,-0.086778,0.439979,0.209555,0.440627,0.089125,1.415455,0.137896,0.530182,-0.243491,0.299883,0.179173,0.279058,0.21245,0.328388,0.127055,0.236181,0.155113,0
101634,1,82949,1010.8735,91.4742,90.4928,12.3151,24.4687,4.0278,-3.9908,450.4824,25.3406,24.8544,6.2366,8.2487,2.7064,-2.7116,17.9683,1.4389,1.1936,0.63567,58.8291,0.098488,-0.098231,0.33559,0.113667,0.551609,-0.101463,0.449013,0.245499,0.44972,0.108536,1.390544,0.177122,0.558773,-0.296438,0.278385,0.218149,0.257145,0.253156,0.310372,0.157844,0.197453,0.191438,0
101634,3,9174,965.5769,57.1843,55.2563,11.6051,19.8143,4.2147,-4.1895,449.4742,17.0172,12.9719,11.0815,7.5506,3.7753,-3.7798,17.189,0.8621,0.46787,0.70862,77.0924,0.14066,-0.14208,0.292916,0.162179,0.601184,-0.146118,0.454836,0.345602,0.455087,0.154176,1.322959,0.253543,0.609602,-0.420005,0.21237,0.309042,0.181698,0.358969,0.257709,0.223953,0.09722,0.271741,0
101668,1,12058,1154.6813,62.6508,61.181,14.7937,25.1733,5.1933,-5.1904,484.5009,13.6717,12.1013,6.3741,4.6827,2.6497,-2.6114,19.0738,1.047,0.84224,0.6313,61.5204,0.1085,-0.10888,0.427538,0.049336,0.542117,-0.06638,0.476219,0.118041,0.47632,0.05734,1.530908,0.080209,0.534329,-0.157865,0.385105,0.11606,0.360177,0.151892,0.409836,0.075716,0.351874,0.094632,0
101668,3,47076,1143.2944,97.4125,97.247,15.1208,31.8296,5.2249,-5.211,513.6947,27.95,25.6598,7.9631,6.432,2.8037,-2.8434,17.816,1.3091,1.074,0.6964,96.4672,0.10703,-0.10678,0.34162,0.150505,0.679366,-0.188244,0.491035,0.332912,0.491531,0.169405,1.385345,0.250811,0.662562,-0.465141,0.222844,0.342004,0.158838,0.436302,0.291408,0.227321,0.119279,0.282789,0
101685,1,33683,895.6716,222.8786,181.5534,15.2696,36.612,5.1728,-5.1575,477.753,90.1774,71.2654,7.6159,9.274,2.7046,-2.6981,14.7985,1.5239,1.2689,0.72065,37.9741,0.09456,-0.094802,0.125997,0.39203,0.676257,-0.160678,0.520413,0.735352,0.518802,0.27377,1.091594,0.587421,0.825685,-0.83177,0.031836,0.62131,0.009956,0.670055,0.080433,0.497829,-0.207726,0.551923,0
101685,2,81054,979.9229,175.0083,166.1363,15.8825,67.209,5.9554,-5.9203,485.5846,44.4989,42.1065,6.3039,12.3276,2.5592,-2.5581,16.0203,1.5979,1.4081,0.66315,62.7839,0.10331,-0.10311,0.24509,0.245349,0.699471,-0.202647,0.492098,0.491153,0.493841,0.227757,1.241831,0.392651,0.724904,-0.6285,0.130108,0.462903,0.088896,0.533425,0.193826,0.338406,-0.043177,0.406921,0
101685,3,4209,374.1108,83.9176,99.4092,12.6661,4.1922,4.0184,-4.0596,242.7346,43.1731,50.7359,7.3871,3.9633,2.0341,-2.0792,12.2665,0.80506,0.31004,0.67716,4.4305,0.083248,-0.081972,0.085931,0.409307,0.463049,-0.081334,0.452739,0.648683,0.425799,0.186743,1.064895,0.550955,0.690719,-0.654693,0.060311,0.501936,0.05786,0.509705,0.073561,0.453583,-0.125636,0.436252,0
101692,1,65285,1082.6428,85.6732,83.6177,18.0542,54.9537,6.0414,-6.0136,502.053,39.1417,38.4615,8.5217,10.3087,2.9276,-2.8795,17.3736,2.0838,1.8369,0.92598,160.0123,0.12062,-0.12073,0.62328,-0.111953,0.383949,0.127264,0.510008,-0.242834,0.511314,-0.12005,1.852463,-0.183854,0.390623,0.328122,0.700888,-0.241352,0.738783,-0.298683,0.656454,-0.164644,0.779373,-0.203532,0
101692,2,65374,1082.3169,85.8468,83.8263,18.0003,54.798,6.0517,-5.9957,473.3285,14.7162,13.1347,6.4623,4.6679,2.7292,-2.6619,18.2809,1.1595,0.90143,0.70358,146.9079,0.11219,-0.11195,0.33449,0.128257,0.613349,-0.150835,0.462427,0.296936,0.462591,0.139736,1.383001,0.205543,0.603101,-0.382009,0.241882,0.280988,0.195102,0.351092,0.295108,0.190089,0.152353,0.235603,0
101708,1,4692,948.566,26.3231,20.3951,17.2901,10.8863,3.4239,-3.4779,453.0045,16.0948,14.1614,8.1808,8.0068,2.1675,-2.1528,16.7712,0.72175,0.19693,0.65454,67.0286,0.10057,-0.099788,0.175988,0.292201,0.727382,-0.260075,0.46767,0.607738,0.467743,0.275736,1.136869,0.460286,0.743983,-0.75085,0.033856,0.552465,-0.019468,0.639479,0.113833,0.401805,-0.17351,0.487033,0
101708,2,8777,917.4989,90.0146,91.1622,17.3238,28.2219,5.4275,-5.4704,453.0128,25.0059,23.8447,9.1048,9.2292,2.6058,-2.5868,16.1869,1.0798,0.68298,0.81665,60.531,0.10564,-0.10731,0.317552,0.147255,0.594653,-0.129514,0.464386,0.303837,0.465017,0.138762,1.359396,0.232788,0.604408,-0.378885,0.246041,0.278819,0.219389,0.322647,0.286147,0.20284,0.141602,0.245532,0
101738,1,92623,924.9605,99.7663,99.7998,13.7315,40.0445,5.1996,-5.2199,420.0423,36.6651,36.6086,6.2111,11.5002,2.1473,-2.145,17.7407,2.4165,2.2891,0.87524,114.9169,0.11583,-0.11618,0.415402,0.005017,0.437699,-0.016167,0.419512,0.029718,0.420967,0.011136,1.516854,0.006704,0.431661,-0.029173,0.404113,0.021407,0.397494,0.031089,0.41074,0.011265,0.399891,0.015859,0
101738,2,93156,925.798,99.942,99.9206,13.8869,40.1881,5.2256,-5.2179,387.9757,17.8338,17.2667,4.9965,5.8099,2.3445,-2.3372,19.0485,1.3596,1.1401,0.69881,54.9269,0.12189,-0.12212,0.236359,0.163759,0.538724,-0.138146,0.400154,0.388812,0.400443,0.151698,1.249994,0.242192,0.553326,-0.415515,0.160262,0.30584,0.133002,0.351375,0.202712,0.224197,0.044425,0.270268,0
101738,3,50085,879.4707,77.8443,75.7325,13.6102,36.241,5.1421,-5.1995,424.3067,33.3505,32.44,8.494,19.5568,2.5838,-2.5626,16.6284,1.4414,1.132,0.86749,60.8566,0.12228,-0.1226,0.267625,0.178149,0.584004,-0.139536,0.444945,0.384072,0.445177,0.158524,1.29213,0.26976,0.605277,-0.434999,0.193745,0.320233,0.169311,0.361999,0.23481,0.239074,0.06862,0.286096,0
101752,1,90080,932.5768,64.0841,61.9072,17.0861,24.3459,6.9438,-6.873,451.1681,26.7397,25.6149,7.9255,13.8499,2.7115,-2.6916,16.5953,1.5332,1.3835,0.68494,54.5278,0.14637,-0.14632,0.46059,-0.010103,0.447262,0.003628,0.44973,-0.020126,0.450692,-0.006626,1.58372,-0.013952,0.44381,0.018665,0.46148,-0.013757,0.460788,-0.013167,0.461098,-0.011932,0.468323,-0.01344,0
101752,2,90082,932.6081,64.0308,61.8416,17.0935,24.0732,6.9317,-6.8661,418.6516,14.7325,13.7976,5.1743,5.3623,2.3755,-2.3429,17.8236,1.0814,0.87768,0.57841,54.928,0.14588,-0.14553,0.311877,0.11449,0.518747,-0.092969,0.425975,0.250128,0.426079,0.103457,1.35854,0.173207,0.530225,-0.283031,0.262506,0.208302,0.245677,0.236749,0.290049,0.154518,0.181757,0.185596,0
101752,3,90084,932.5795,64.0667,61.8707,17.1031,24.3142,6.9156,-6.8514,442.0939,24.6297,23.5384,7.2875,11.5197,2.6307,-2.6211,16.9374,1.6045,1.4572,0.6608,69.8326,0.14619,-0.14619,0.512943,-0.07597,0.376772,0.06067,0.436522,-0.155099,0.437203,-0.068096,1.666492,-0.118013,0.368601,0.186426,0.544945,-0.137208,0.555636,-0.155407,0.527117,-0.10216,0.598459,-0.122507,0
101756,1,76943,978.8609,141.9504,139.3907,15.7622,45.1014,6.5171,-6.5062,462.2541,30.249,29.2916,6.9722,10.7148,2.6225,-2.6173,16.9762,2.47,2.345,0.73649,118.192,0.12892,-0.12935,0.415787,0.047471,0.512598,-0.048287,0.462834,0.108306,0.463776,0.048339,1.515669,0.074277,0.512285,-0.131893,0.387549,0.097038,0.375364,0.116418,0.403556,0.068021,0.353728,0.083428,0
101756,2,76901,978.6592,141.9767,139.432,15.7487,44.7619,6.5335,-6.5079,457.7462,33.482,32.6973,6.0284,10.3991,2.4183,-2.396,17.1646,2.6016,2.4529,0.796,123.8341,0.12327,-0.12325,0.413559,0.045151,0.503931,-0.044288,0.457966,0.100457,0.459172,0.044987,1.51182,0.071091,0.504219,-0.122488,0.388378,0.090118,0.377977,0.106889,0.402638,0.063871,0.356127,0.078126,0
101756,3,9537,906.5035,66.7216,64.927,15.9214,41.4652,5.047,-5.0395,476.2632,14.9192,11.5828,9.5273,6.1728,3.3393,-3.3408,15.2241,0.96884,0.49645,0.78689,99.3438,0.11886,-0.11933,0.400572,0.083579,0.551103,-0.067609,0.4836,0.157205,0.483824,0.075325,1.487937,0.135033,0.559653,-0.206053,0.364749,0.151646,0.35258,0.172185,0.384735,0.112627,0.305851,0.135225,0
101762,1,97619,830.1073,89.5079,82.4131,12.5867,24.5397,5.0872,-5.0789,430.7512,39.4375,38.0941,8.5677,7.952,3.2707,-3.2621,15.4201,1.1014,0.90036,0.57763,27.3903,0.11064,-0.11023,0.144822,0.344264,0.615815,-0.151642,0.487105,0.665083,0.479011,0.251921,1.109082,0.518364,0.756599,-0.744995,0.04809,0.553738,0.024555,0.598903,0.099262,0.439036,-0.171542,0.497302,0
101762,2,56142,870.9164,73.8324,71.6694,13.9603,23.4413,5.5919,-5.5731,387.1181,11.9241,10.9295,4.1316,3.679,2.1457,-2.1594,17.9795,1.1686,0.93538,0.64508,49.2042,0.11608,-0.11613,0.274197,0.129661,0.497633,-0.095665,0.40319,0.291421,0.402904,0.111769,1.307017,0.190398,0.516198,-0.307684,0.225083,0.226549,0.20986,0.253143,0.252279,0.171498,0.134754,0.203863,0
101762,3,96655,834.3496,77.4078,77.0093,12.6987,24.451,5.1218,-5.087,404.6012,34.7641,35.9907,6.9336,9.3269,2.7592,-2.7502,16.5263,1.16,0.915,0.64125,24.6255,0.11228,-0.11226,0.14232,0.314383,0.671648,-0.221148,0.454549,0.648248,0.453583,0.264891,1.103762,0.474503,0.723346,-0.732209,0.030421,0.539331,-0.002716,0.598231,0.092144,0.412092,-0.186934,0.487183,0
101774,1,17626,738.928,56.2205,47.0855,9.0142,10.6502,3.7116,-3.644,407.3459,23.6353,19.3446,7.9462,4.0548,2.782,-2.8238,14.5062,0.71496,0.4276,0.49889,34.7653,0.10366,-0.1032,0.130705,0.373291,0.606395,-0.146731,0.50413,0.71271,0.480129,0.241038,1.111859,0.528105,0.752615,-0.723662,0.063808,0.539196,0.051586,0.565571,0.099068,0.449638,-0.159318,0.491954,0
101774,2,114238,750.2369,46.9884,45.5952,9.2223,14.2923,4.0055,-3.9196,387.663,9.2895,7.8733,4.8416,3.0823,2.314,-2.3064,15.4745,0.75159,0.60511,0.42593,15.4585,0.094254,-0.094278,0.272945,0.152903,0.499282,-0.083462,0.421824,0.293218,0.420417,0.113337,1.304666,0.22516,0.539609,-0.321456,0.234977,0.237422,0.226361,0.254178,0.25557,0.190609,0.134945,0.218153,0
101774,3,68936,756.1088,55.282,48.7055,9.2938,14.3856,4.0649,-4.0104,406.2347,27.7947,25.5893,6.9201,7.1149,2.4317,-2.4364,14.9333,1.2522,1.0751,0.56507,17.8776,0.10451,-0.10464,0.316895,0.118053,0.502412,-0.072362,0.447225,0.350973,0.434602,0.100876,1.383039,0.156837,0.535354,-0.274857,0.276118,0.201083,0.266382,0.219113,0.298223,0.154722,0.189076,0.186768,0
101851,1,101045,829.8279,102.2465,100.5065,13.7576,46.5645,5.1972,-5.121,412.2176,17.6481,16.5919,5.4529,5.4267,2.4664,-2.4668,16.0687,1.5283,1.2743,0.77915,41.3949,0.10861,-0.10842,0.294948,0.141284,0.525682,-0.092909,0.434868,0.281957,0.434546,0.115684,1.333392,0.213253,0.553323,-0.322141,0.248326,0.237474,0.235329,0.261211,0.273859,0.183444,0.151717,0.215218,0
101851,2,100413,828.9427,101.6157,99.7956,13.7097,46.4445,5.1895,-5.138,414.7044,18.3525,17.5056,4.7301,5.993,2.3116,-2.3057,15.9441,1.3685,1.1251,0.72403,35.3194,0.10349,-0.10346,0.274664,0.168897,0.551746,-0.112116,0.442441,0.338861,0.441664,0.138975,1.302809,0.254923,0.584241,-0.386735,0.218098,0.285076,0.202146,0.314084,0.249096,0.219762,0.102421,0.258116,0
101851,3,101017,829.9008,102.177,100.4288,13.7812,46.7671,5.1825,-5.1309,408.1946,17.3423,16.5934,4.6269,5.1343,2.2819,-2.2815,16.2185,1.4312,1.1806,0.74328,40.6834,0.10774,-0.10791,0.277749,0.157144,0.535115,-0.10394,0.433706,0.318989,0.433093,0.129069,1.308537,0.235863,0.565556,-0.359283,0.225399,0.264848,0.210694,0.291631,0.254079,0.204319,0.117842,0.239872,0
101853,1,87587,957.2635,60.9476,59.449,13.2888,19.9515,5.5019,-5.4675,447.7882,25.7921,25.8451,6.8735,5.021,2.8674,-2.8651,17.1272,1.0555,0.85774,0.55347,49.3726,0.11954,-0.11964,0.240846,0.216168,0.637311,-0.180768,0.456008,0.43529,0.456811,0.198606,1.238117,0.341846,0.656622,-0.543061,0.142937,0.399677,0.108406,0.457393,0.197629,0.294207,-0.009889,0.354437,1
101853,3,87546,957.2201,61.0341,59.5483,13.168,19.8923,5.4623,-5.4326,401.5375,10.9185,10.0298,4.1374,3.2978,2.1928,-2.181,19.0605,0.90917,0.76267,0.47228,41.7084,0.11478,-0.11515,0.263161,0.144552,0.535507,-0.127775,0.407711,0.343711,0.407741,0.136401,1.288278,0.215121,0.544627,-0.37208,0.192703,0.273802,0.166362,0.31696,0.232261,0.19909,0.090153,0.241148,1
101857,1,21813,907.4255,68.2257,65.8941,11.477,17.9236,4.1928,-4.1334,447.0243,12.3608,11.8018,3.6313,3.8994,2.0848,-2.0669,16.2222,0.87145,0.70927,0.45382,17.4086,0.080006,-0.079572,0.292332,0.170454,0.595219,-0.133816,0.462355,0.342764,0.462114,0.151642,1.32284,0.265479,0.615178,-0.415883,0.221747,0.306138,0.198402,0.346001,0.261003,0.228606,0.102022,0.273606,0
101857,3,83473,923.8971,96.3195,93.0182,13.7757,33.7128,4.9645,-4.8944,449.7516,19.1326,18.3032,4.7511,6.3769,2.3142,-2.3204,16.3987,1.1654,0.98021,0.53933,30.9503,0.095452,-0.09476,0.278409,0.185488,0.605719,-0.142543,0.463556,0.368527,0.463592,0.163737,1.300687,0.289607,0.629304,-0.450298,0.203247,0.331558,0.178777,0.373894,0.244936,0.248305,0.073272,0.296471,0
101917,1,24518,1032.4231,116.4518,106.436,17.4784,22.0486,6.8621,-6.8694,513.4285,38.478,39.1381,6.1966,5.249,2.917,-2.9265,16.1013,1.5897,1.2839,0.70752,44.5782,0.10618,-0.10733,0.402965,0.106856,0.617219,-0.106076,0.508767,0.231137,0.510452,0.107378,1.497663,0.168899,0.618133,-0.292744,0.341266,0.215395,0.315346,0.256598,0.37616,0.151992,0.265181,0.186074,0
101917,2,42997,1031.471,168.7814,201.4017,17.9178,28.0111,6.6449,-6.6593,523.2241,20.5679,20.4147,5.5935,5.5616,2.54,-2.5536,15.7285,2.0661,1.8937,0.92106,49.8805,0.1033,-0.10383,0.451225,0.069759,0.618508,-0.096709,0.520934,0.160486,0.521286,0.085249,1.564906,0.119092,0.609405,-0.239529,0.383539,0.175387,0.345237,0.231528,0.422197,0.112211,0.336857,0.139944,0
101917,3,8589,843.7012,281.5214,231.9718,15.3236,16.454,4.7396,-4.8054,424.9524,98.9254,87.1232,7.8364,9.7936,2.3349,-2.4036,15.4284,2.1667,1.9462,0.58395,79.5278,0.092334,-0.093283,0.130344,0.345679,0.643693,-0.160547,0.476938,0.648354,0.480479,0.24449,1.101565,0.510717,0.745775,-0.722844,0.057407,0.537767,0.040551,0.578326,0.096421,0.432979,-0.158343,0.484031,0
101923,1,3986,872.0422,70.5303,66.1152,14.339,22.908,4.3942,-4.4333,435.9459,25.7843,23.7271,4.2807,4.2314,2.0874,-2.1916,16.0012,0.87177,0.43237,0.70378,19.0718,0.089302,-0.090427,0.092423,0.391418,0.751121,-0.275536,0.484336,0.809512,0.479524,0.329135,1.029876,0.589144,0.81436,-0.908901,-0.045707,0.669383,-0.086428,0.741735,0.030574,0.512064,-0.316278,0.605375,0
101950,1,73783,848.0738,54.2202,53.1125,12.0609,22.6189,4.1258,-4.0786,465.8364,21.8636,20.0456,8.434,9.0643,2.9364,-2.9099,14.5757,0.85818,0.65712,0.55835,94.9588,0.095226,-0.095079,0.285021,0.213253,0.658485,-0.162836,0.49786,0.405788,0.497012,0.187158,1.306544,0.338704,0.686264,-0.514052,0.199944,0.378432,0.172659,0.425422,0.247142,0.284314,0.050607,0.339308,0
101950,3,19742,882.1019,53.1618,53.3147,13.9997,9.0518,3.6436,-3.5282,494.3564,27.6753,25.9157,9.0615,31.0409,2.7203,-2.6996,14.3002,0.88938,0.59824,0.64162,212.2796,0.081849,-0.081704,0.296483,0.22438,0.706709,-0.18693,0.519983,0.41161,0.520334,0.205137,1.313478,0.370341,0.726539,-0.560403,0.196483,0.412398,0.16141,0.47104,0.252419,0.304304,0.037947,0.366429,0
101984,1,3747,1048.6536,62.7735,59.3164,15.9304,28.8231,6.1621,-6.1592,430.866,7.8099,6.3815,4.4238,3.4953,2.174,-2.2412,19.4626,0.96267,0.75696,0.62711,45.1446,0.12402,-0.12445,0.337256,0.089393,0.523574,-0.096814,0.426634,0.217033,0.426699,0.093182,1.394801,0.137356,0.520048,-0.253749,0.280074,0.186688,0.253563,0.227373,0.312762,0.129242,0.216932,0.159268,0
101984,2,20626,1052.7139,74.8694,73.9171,16.4475,21.7116,6.0001,-5.9896,435.4739,16.6811,16.1495,5.8239,4.2669,2.4688,-2.4803,19.3323,1.006,0.72504,0.65984,59.6127,0.12388,-0.12395,0.291489,0.136699,0.583254,-0.155155,0.427951,0.332519,0.428129,0.146059,1.322436,0.212168,0.57473,-0.398527,0.197865,0.29317,0.152222,0.362226,0.251561,0.200357,0.101904,0.247723,0
101984,3,80876,1007.7329,144.3388,100.6447,16.1489,24.6724,6.099,-6.0909,388.1518,34.789,28.2914,5.2993,3.5685,2.3296,-2.3223,20.6713,2.2755,1.6649,0.83336,44.8315,0.14311,-0.14355,0.192006,0.194485,0.470704,-0.079349,0.387517,0.461777,0.389236,0.136535,1.209529,0.263334,0.542619,-0.418664,0.142424,0.313315,0.13047,0.33972,0.167658,0.249453,0.024909,0.275909,0
102042,1,87514,939.1934,93.5558,93.6777,10.0821,24.631,4.4567,-4.4658,518.2491,64.3416,64.2196,8.453,17.5555,2.7731,-2.758,14.6787,2.0971,2.0305,0.75354,233.3707,0.087013,-0.087417,0.372402,0.155288,0.693634,-0.163227,0.525425,0.317976,0.529152,0.162054,1.437845,0.26058,0.691688,-0.441875,0.273804,0.325087,0.230814,0.392586,0.329585,0.225604,0.162689,0.277906,0
102042,2,90029,933.874,97.9771,97.6437,10.0391,25.4391,4.3528,-4.3734,439.717,16.9289,15.5375,6.9165,5.4238,2.9408,-2.9409,16.9791,1.5113,1.3481,0.57681,54.8957,0.12053,-0.12071,0.350041,0.096027,0.520512,-0.074672,0.445766,0.195743,0.446037,0.085888,1.41316,0.149198,0.533005,-0.236302,0.309422,0.173994,0.296222,0.196735,0.33184,0.129627,0.241832,0.155083,0
102042,3,41542,928.4186,92.9893,91.0656,10.7282,22.4309,4.427,-4.5352,456.9583,30.0224,28.9984,6.8368,7.1452,2.6042,-2.6331,16.2695,1.4433,1.256,0.61096,23.8884,0.098939,-0.099671,0.33855,0.127378,0.582125,-0.115426,0.465885,0.280199,0.466385,0.122342,1.396233,0.19766,0.589346,-0.334223,0.273215,0.24596,0.248084,0.286911,0.309874,0.177337,0.182705,0.215301,0
102043,1,5149,902.2087,51.3353,46.9164,13.8536,18.5884,5.18,-5.2538,439.5004,8.3602,6.9789,4.5398,3.4603,2.2908,-2.2928,16.4179,0.805,0.24196,0.71523,22.9866,0.10188,-0.10177,0.328132,0.123479,0.546969,-0.096825,0.450897,0.248481,0.450861,0.109499,1.378916,0.191889,0.561262,-0.299933,0.277547,0.220753,0.260933,0.24907,0.30571,0.165145,0.19083,0.19764,0
102043,2,29309,839.8267,123.5719,128.8415,15.3052,39.2356,4.962,-5.0364,435.3589,17.9519,17.041,5.844,5.0212,2.3845,-2.3871,15.39,1.8097,1.6372,0.87136,49.7606,0.10005,-0.10062,0.361068,0.088375,0.516276,-0.066931,0.449314,0.178062,0.449559,0.078083,1.430329,0.137325,0.528933,-0.215602,0.324898,0.158803,0.313188,0.179188,0.344848,0.118812,0.262999,0.141663,0
102043,3,10134,801.5721,61.4514,59.1962,12.9769,24.9606,4.9041,-4.9154,412.8653,25.9779,24.3856,7.4737,14.7942,2.2924,-2.2713,15.5633,1.2284,0.91443,0.76385,107.8085,0.10635,-0.10654,0.279736,0.166071,0.547296,-0.107284,0.444212,0.336805,0.442876,0.134399,1.312846,0.247996,0.581036,-0.374368,0.226611,0.275963,0.21217,0.302281,0.255699,0.21429,0.113505,0.250876,0
102046,1,78451,1040.4936,104.9441,84.2476,15.6801,26.3612,5.0267,-5.0467,494.7218,62.7256,60.065,8.1955,8.6163,2.782,-2.7788,17.0557,2.6407,2.3732,0.93801,74.2907,0.10378,-0.10403,0.468943,0.024755,0.579853,-0.087109,0.48484,0.333962,0.491833,0.08475,1.643185,0.000061,0.567598,-0.205359,0.376302,0.147441,0.335114,0.205864,0.428115,0.073305,0.335854,0.118711,0
102046,2,77364,1048.8278,75.835,72.5531,15.4715,26.3232,5.0207,-5.0125,506.1639,50.0865,50.1298,8.3596,6.8072,2.8557,-2.8595,16.7956,2.4424,2.227,0.77595,84.0913,0.10557,-0.10555,0.940234,-0.413863,0.083441,0.441365,0.523154,-0.832122,0.52564,-0.428681,2.389468,-0.694545,0.095956,1.168006,1.200551,-0.859321,1.319393,-1.04278,1.052042,-0.59682,1.493224,-0.734518,0
102046,3,21536,770.3192,360.8993,345.4127,18.4182,54.5215,4.5456,-4.6003,354.3222,85.1326,82.9238,5.8818,4.7954,1.7239,-1.7378,16.4682,4.2844,4.08,1.2478,86.144,0.097456,-0.09797,0.174288,0.2327,0.540189,-0.114849,0.412777,0.493361,0.417737,0.171545,1.173281,0.332316,0.602605,-0.506856,0.119781,0.377017,0.105844,0.411176,0.148906,0.298186,-0.028009,0.335833,0
102081,1,57473,740.926,81.3834,80.2314,7.9257,24.4047,3.3106,-3.3243,398.2363,15.8287,14.7895,5.1811,5.2224,2.3828,-2.398,14.8522,1.1865,1.1054,0.41546,42.4468,0.085016,-0.085401,0.273108,0.168874,0.520184,-0.089288,0.438093,0.314655,0.436096,0.123849,1.303726,0.250562,0.567226,-0.353411,0.232133,0.261274,0.222945,0.279423,0.254267,0.210269,0.122466,0.239683,0
102081,2,113880,759.7326,76.9715,75.3226,8.3771,17.4422,3.6772,-3.6871,399.391,13.718,12.6501,5.2446,4.589,2.4851,-2.4682,15.1934,1.1878,1.0885,0.42919,21.7204,0.083967,-0.084074,0.288453,0.146034,0.504575,-0.079093,0.430918,0.273582,0.429719,0.108359,1.32606,0.217194,0.543967,-0.308173,0.251834,0.227728,0.243439,0.244142,0.271646,0.182546,0.156393,0.208786,0
102123,1,99458,809.7027,68.9062,67.4464,11.9475,25.5545,4.7242,-4.6967,437.8493,27.6962,26.7687,7.8384,13.7658,2.5876,-2.5715,14.8102,1.0979,0.85923,0.65538,53.5584,0.10346,-0.10366,0.254595,0.226299,0.618983,-0.145768,0.478022,0.419291,0.476961,0.18269,1.266115,0.350526,0.664827,-0.509089,0.182849,0.375282,0.163387,0.410882,0.222143,0.291681,0.028918,0.341243,0
102123,2,76453,806.4077,73.8435,72.9503,12.4038,26.835,4.6073,-4.5732,415.1702,15.0533,14.302,4.7019,5.0833,2.2796,-2.2501,15.5176,1.0178,0.81053,0.58113,23.2521,0.095059,-0.094963,0.267254,0.18341,0.561848,-0.117459,0.448419,0.355399,0.447449,0.147654,1.290503,0.27812,0.599376,-0.411679,0.209609,0.303491,0.194077,0.331998,0.241167,0.236145,0.084975,0.276081,0
102123,3,99100,809.7589,69.1393,67.6874,11.9648,25.2677,4.7127,-4.6777,407.2707,17.6995,16.6958,6.3889,5.7145,2.5509,-2.55,15.899,1.0661,0.83282,0.62173,20.0526,0.11026,-0.10998,0.266959,0.17326,0.544453,-0.110402,0.438014,0.344354,0.437035,0.139055,1.292634,0.259699,0.580149,-0.387763,0.213027,0.285857,0.198615,0.312358,0.242548,0.222731,0.095402,0.260242,0
102125,3,2941,846.5921,89.9613,95.0278,16.6904,22.4504,4.7942,-4.8092,491.3278,23.5373,22.7454,8.8966,6.6538,3.1074,-2.9778,13.7623,0.96383,0.31161,0.61006,53.4727,0.093368,-0.093915,0.339113,0.180183,0.664322,-0.145426,0.518291,0.318445,0.519164,0.162579,1.380981,0.300626,0.683059,-0.445411,0.261712,0.32785,0.235319,0.37267,0.30486,0.243261,0.134741,0.291951,0
102154,1,96632,893.9959,94.5317,93.078,10.4881,21.3363,4.3926,-4.3573,430.2439,31.0534,30.3504,8.0685,10.3638,2.8614,-2.841,16.6275,1.3779,1.2299,0.6176,46.5921,0.11219,-0.11222,0.246583,0.205444,0.612218,-0.160914,0.451741,0.436997,0.451819,0.183679,1.258334,0.313259,0.637747,-0.505178,0.159754,0.371983,0.130795,0.421512,0.207882,0.276973,0.015478,0.331411,0
102154,2,96707,894.1264,94.1273,92.7683,10.521,21.5287,4.4233,-4.3839,406.7258,15.3061,14.5188,4.853,5.4208,2.287,-2.2879,17.5509,1.3279,1.1942,0.51403,50.7116,0.097798,-0.097486,0.274708,0.147655,0.531631,-0.110478,0.421905,0.318539,0.421845,0.12893,1.303981,0.22155,0.552713,-0.355473,0.216336,0.261796,0.197804,0.294047,0.248583,0.196956,0.113225,0.234498,0
102159,1,100411,786.6696,73.4974,72.176,10.5136,23.3134,4.0522,-4.0118,455.1419,28.4405,27.5209,7.3077,11.3356,2.651,-2.6431,13.8944,1.6808,1.5746,0.56148,32.7605,0.08201,-0.08198,0.516896,-0.07849,0.400077,0.042969,0.440107,-0.129764,0.44086,-0.05856,1.674119,-0.123392,0.379258,0.166252,0.536835,-0.122821,0.541426,-0.131785,0.526044,-0.098289,0.588311,-0.112602,0
102159,2,92429,787.7738,73.9515,72.5782,10.5858,24.2469,3.9857,-3.9563,405.3183,29.0316,28.5637,7.3479,12.4467,2.4279,-2.4312,15.6157,1.7397,1.5951,0.66959,88.7035,0.10378,-0.10366,0.372678,0.041427,0.436027,-0.023997,0.411653,0.07433,0.412988,0.031634,1.450455,0.063409,0.44589,-0.088985,0.361605,0.065653,0.358976,0.070712,0.367636,0.052175,0.334043,0.060229,0
102159,3,9243,775.8904,59.9161,59.4429,12.3124,15.0049,4.1089,-4.2135,404.21,11.7806,9.5546,6.8881,3.9602,2.6029,-2.5727,15.3536,1.0596,0.74356,0.69063,33.4891,0.10661,-0.10696,0.346365,0.074294,0.464172,-0.046515,0.419186,0.145988,0.419067,0.058928,1.41155,0.111317,0.479783,-0.164441,0.324098,0.121223,0.318298,0.131961,0.336291,0.094934,0.273872,0.110657,0
102182,1,78712,1064.6382,101.6789,96.8414,17.2703,29.9171,6.1162,-6.1332,473.5437,53.0186,55.3037,8.8445,16.5744,2.9253,-2.9241,18.1416,2.1564,1.7846,0.98817,107.3834,0.13811,-0.13821,0.304653,0.158593,0.628249,-0.163326,0.461251,0.348501,0.463995,0.162723,1.337486,0.254003,0.627664,-0.444967,0.206854,0.327368,0.163756,0.394757,0.262218,0.228467,0.094593,0.280289,0
102182,2,17976,1036.4627,51.6075,47.5781,16.3964,17.5205,5.5999,-5.6473,492.5231,37.003,35.6026,8.3745,31.7597,2.4877,-2.501,16.9282,1.5017,1.1142,1.0039,239.68,0.1138,-0.11349,0.488258,0.004114,0.491799,0.000749,0.491065,0.002689,0.492461,0.001755,1.630058,0.007233,0.494192,-0.004704,0.489741,0.003464,0.491781,0.000956,0.488749,0.004161,0.486601,0.004427,0
102182,3,6326,1094.5666,95.5247,92.9037,18.2263,30.5604,6.3946,-6.6255,489.3012,27.9758,25.991,9.7693,17.8701,3.1591,-3.1482,17.932,1.6591,1.3095,0.93916,98.8438,0.13388,-0.136,0.392611,0.088237,0.587847,-0.107373,0.479707,0.204742,0.480631,0.097809,1.475728,0.142438,0.579152,-0.267884,0.325864,0.197023,0.290813,0.249038,0.364355,0.132026,0.264714,0.163999,0
102230,1,99135,871.0539,67.7916,66.3451,12.2859,25.0278,5.2603,-5.2241,510.8824,50.8237,49.166,8.7398,32.1971,2.6999,-2.687,13.7413,1.443,1.3076,0.65255,134.5115,0.094156,-0.094217,0.27444,0.271441,0.746018,-0.203729,0.542505,0.462953,0.544101,0.23609,1.27322,0.454258,0.783148,-0.649253,0.168883,0.478014,0.135552,0.535821,0.227395,0.360465,-0.020674,0.429319,0
102230,2,81427,878.3124,69.274,68.0643,12.5319,26.4889,5.2786,-5.2453,451.4673,30.7103,30.4961,8.0636,11.6009,2.443,-2.4357,15.6102,1.3724,1.1485,0.73376,63.4661,0.11272,-0.1127,0.334891,0.132749,0.572089,-0.105353,0.466371,0.261756,0.467207,0.118672,1.387502,0.209369,0.586874,-0.325174,0.279268,0.239348,0.260689,0.270983,0.31024,0.178368,0.185892,0.213726,0
102230,3,97743,875.6755,65.5739,63.9785,12.3607,25.7965,5.0232,-5.013,447.5298,14.6574,12.2814,8.1998,5.4832,3.1185,-3.1427,15.6478,0.96165,0.79756,0.52225,27.1207,0.11379,-0.11307,0.329991,0.134227,0.564162,-0.101651,0.46341,0.262024,0.463371,0.117233,1.380608,0.210127,0.581964,-0.322125,0.277211,0.237149,0.260416,0.26618,0.306492,0.178529,0.183349,0.212851,0
102244,1,33896,926.8131,157.3124,151.9658,13.7469,47.8082,5.4005,-5.3217,444.0573,37.5824,34.7186,7.6056,14.5289,2.6398,-2.6403,16.6556,2.1937,1.9181,0.8971,91.8591,0.11276,-0.11265,0.31914,0.134711,0.552532,-0.097793,0.453451,0.279684,0.454632,0.118619,1.367183,0.208047,0.57603,-0.329845,0.263698,0.24318,0.245887,0.274588,0.294105,0.181776,0.16972,0.216193,0
102244,2,33881,933.7346,223.5339,217.6543,15.231,34.7854,5.9083,-5.8519,426.0225,54.0238,45.8567,6.508,9.5386,2.6719,-2.6699,17.297,2.4619,2.1369,0.91777,41.674,0.11659,-0.11645,0.233214,0.206398,0.555731,-0.112679,0.442428,0.486852,0.44297,0.171383,1.250924,0.302296,0.626536,-0.498946,0.152337,0.370035,0.128552,0.414418,0.195075,0.279534,0.013604,0.325383,0
102244,3,18094,563.119,261.1412,322.0512,20.2621,22.477,5.208,-5.1963,314.8546,74.3223,81.3486,9.3469,26.5698,2.2176,-2.2313,13.7548,2.6905,2.7917,1.1398,30.1567,0.081683,-0.081321,0.171356,0.255439,0.538455,-0.111351,0.429094,0.51682,0.433482,0.183468,1.165488,0.371101,0.637795,-0.551698,0.111961,0.41128,0.097312,0.446758,0.143436,0.326899,-0.048397,0.365286,0
102253,1,127972,668.8925,52.7352,50.8938,11.6956,17.4992,4.5777,-4.5857,400.5691,26.5986,25.5023,6.715,15.5212,2.1659,-2.1479,13.3887,1.06,0.85168,0.60308,108.7273,0.10178,-0.10198,0.258126,0.21293,0.54219,-0.094222,0.464258,0.370096,0.458247,0.142512,1.283528,0.313429,0.614484,-0.417112,0.218356,0.309444,0.210998,0.324946,0.239639,0.256828,0.087131,0.285075,0
102253,3,15226,668.081,79.9737,60.5158,12.9535,14.3102,4.8578,-5.0009,382.7111,35.9584,27.6758,4.6562,2.6577,2.2292,-2.2964,13.9232,0.69605,0.45298,0.47933,26.8063,0.098652,-0.099675,0.067316,0.470151,0.553455,-0.112256,0.525425,0.793148,0.479526,0.237714,1.036742,0.641609,0.791186,-0.796747,0.025965,0.605372,0.020857,0.619954,0.04728,0.534386,-0.205325,0.534832,0
102308,1,109569,754.7738,42.2788,42.3792,6.3543,8.1841,2.2064,-2.1219,386.3519,17.2837,17.3243,4.7617,2.8827,2.2047,-2.1798,15.6367,0.71994,0.53313,0.38942,10.166,0.069734,-0.069133,0.207234,0.237319,0.568458,-0.137065,0.439552,0.459583,0.437505,0.180902,1.206073,0.352103,0.626093,-0.509537,0.143428,0.37602,0.128074,0.40523,0.178164,0.298848,-0.014026,0.344664,1
102308,3,110503,751.502,56.3021,49.0778,6.4601,8.2299,2.2615,-2.1992,386.0594,18.5805,15.5501,4.1628,2.5877,2.1477,-2.1517,15.5565,0.71956,0.59915,0.31104,15.0406,0.068683,-0.067318,0.169114,0.288559,0.523865,-0.102835,0.456455,0.585866,0.440137,0.187521,1.166159,0.406024,0.65728,-0.574369,0.10987,0.429,0.098231,0.453145,0.140713,0.353488,-0.06234,0.386847,1
102309,1,128627,669.2833,96.1045,95.127,9.3406,31.8069,3.7635,-3.7364,387.8128,28.0047,27.9183,7.1866,8.9836,2.5406,-2.5282,13.8328,1.9564,1.8442,0.6479,47.4989,0.097287,-0.097559,0.334651,0.079428,0.444631,-0.037285,0.409933,0.140977,0.410385,0.054875,1.395475,0.117827,0.469564,-0.158962,0.318695,0.117733,0.315597,0.124251,0.327264,0.096772,0.268712,0.108517,0
102309,2,128604,669.4686,96.4534,95.5621,9.3377,31.8484,3.7677,-3.7314,372.0527,14.5383,13.6153,5.0411,5.3111,2.3981,-2.4075,14.3505,1.6433,1.5085,0.5913,40.3527,0.096266,-0.096249,0.284519,0.13075,0.457741,-0.056237,0.409297,0.233919,0.407689,0.086677,1.323962,0.189552,0.503355,-0.255347,0.26069,0.189659,0.256295,0.199138,0.273409,0.157625,0.180786,0.174252,0
102317,1,63229,1317.3807,161.0781,153.6167,22.0148,58.8177,6.1415,-6.1478,603.3458,56.9453,55.8328,9.6267,11.124,3.0272,-3.034,17.6236,2.7497,2.5994,0.85786,221.8561,0.10417,-0.10409,0.64404,-0.030882,0.592096,0.014609,0.604776,-0.025428,0.610246,-0.025675,1.915709,-0.064132,0.586469,0.062277,0.646199,-0.046714,0.628248,-0.028925,0.646395,-0.039651,0.674538,-0.048088,0
102317,2,4451,1394.924,62.5115,57.5651,23.7234,21.2967,8.3007,-8.1119,500.6459,7.6102,5.8875,4.6839,3.2137,2.2237,-2.1559,22.2872,0.88001,0.47845,0.67038,41.213,0.13914,-0.13655,0.366412,0.09635,0.627247,-0.176154,0.459013,0.261969,0.457475,0.130437,1.428929,0.158559,0.593411,-0.373177,0.241913,0.272969,0.138316,0.410155,0.316699,0.162255,0.188756,0.20537,0
102317,3,32336,1237.9256,124.3865,119.3515,18.537,36.8292,6.1948,-6.197,504.2961,21.9269,20.8647,6.8246,5.9727,2.7569,-2.7526,19.6085,1.4521,1.2062,0.73399,58.8998,0.1172,-0.11736,0.328569,0.141877,0.669797,-0.203047,0.468838,0.343801,0.46846,0.171209,1.366609,0.233822,0.643194,-0.475965,0.193654,0.34948,0.109511,0.469059,0.272437,0.223304,0.100637,0.279751,0
102337,1,110893,773.9897,67.8279,66.9639,8.9128,23.1945,4.0294,-4.0372,435.8363,26.8351,25.5325,6.7901,8.9952,2.7105,-2.7057,14.2304,1.2177,1.0855,0.53602,107.4545,0.097205,-0.097731,0.30301,0.171565,0.566712,-0.100618,0.470324,0.301044,0.470032,0.131819,1.340642,0.266299,0.60708,-0.370631,0.256023,0.273458,0.244555,0.295276,0.281634,0.216698,0.141733,0.250447,0
102403,1,83287,1008.1118,130.967,126.584,18.1391,56.275,5.3272,-5.2999,466.7653,30.351,27.6503,8.0933,7.8721,3.0483,-3.0655,17.245,1.6344,1.382,0.83898,92.4384,0.11834,-0.11805,0.288215,0.177103,0.643571,-0.175482,0.465618,0.401298,0.466684,0.178377,1.315711,0.277571,0.646025,-0.487556,0.184909,0.358734,0.141269,0.428176,0.243219,0.252744,0.059026,0.309192,0
102403,3,83258,1008.0985,131.0256,126.6511,18.1232,56.5227,5.352,-5.3038,425.1726,30.213,30.8121,6.6339,7.7428,2.3082,-2.3325,18.9539,1.9891,1.703,0.95679,128.4846,0.12016,-0.11985,0.27733,0.146646,0.563071,-0.136862,0.424093,0.335272,0.425109,0.143495,1.303061,0.225659,0.569653,-0.392956,0.197969,0.289178,0.166261,0.34059,0.242503,0.206531,0.093846,0.251249,0
102422,1,92261,904.1698,145.4993,141.0285,17.5096,77.7262,6.8333,-6.7917,417.4493,36.809,36.3194,5.8546,12.4207,2.3976,-2.4239,17.3176,2.3354,2.1112,0.93937,117.2313,0.13331,-0.13279,0.287962,0.143214,0.538802,-0.106997,0.430733,0.311836,0.431782,0.126891,1.323178,0.216706,0.560998,-0.351165,0.228583,0.258761,0.209385,0.29234,0.26126,0.193196,0.128218,0.230395,0
102422,2,92128,904.5903,145.0157,140.6096,17.5702,76.2649,6.8791,-6.8381,430.3969,28.7878,28.0123,4.0926,7.9993,2.2522,-2.2821,16.7205,1.7433,1.5054,0.78675,60.1358,0.1238,-0.12304,0.259675,0.188732,0.586042,-0.137337,0.448748,0.392038,0.448967,0.165262,1.276931,0.289165,0.617926,-0.458983,0.183353,0.338343,0.159035,0.38114,0.22522,0.253684,0.051833,0.301483,0
102422,3,2162,987.0744,74.9564,65.5454,19.137,27.3671,8.5824,-8.4325,405.3062,15.363,10.1668,11.7235,8.7886,4.5547,-4.2851,19.4758,1.2488,0.049963,1.193,69.7419,0.1928,-0.18862,0.366179,0.040461,0.442266,-0.035574,0.406354,0.092372,0.406669,0.038056,1.440851,0.061102,0.444879,-0.103867,0.346637,0.076435,0.339344,0.088417,0.357608,0.055649,0.317961,0.067351,0
102431,1,104137,830.853,70.1916,67.7725,10.1803,20.1464,4.5795,-4.5457,445.3894,33.7085,32.3599,7.2526,9.662,2.6296,-2.6069,14.9862,1.5006,1.3539,0.63872,82.4521,0.10162,-0.10173,0.331,0.137687,0.561792,-0.096045,0.467041,0.266967,0.467204,0.115571,1.385134,0.212866,0.584844,-0.319339,0.282655,0.235194,0.268602,0.26027,0.309297,0.180093,0.187426,0.21283,0
102431,2,103408,830.783,70.2233,67.7588,10.2708,20.0287,4.6197,-4.5911,452.5799,14.3463,12.449,7.0943,4.4284,2.7806,-2.775,14.6728,0.98715,0.85245,0.45475,41.0838,0.099885,-0.099867,0.327275,0.150839,0.572278,-0.098756,0.476377,0.274058,0.475746,0.122678,1.376308,0.2362,0.601597,-0.341213,0.27859,0.251476,0.265208,0.275867,0.305295,0.194918,0.175639,0.228496,0
102431,3,104085,830.6496,70.0448,67.6396,10.2361,20.1286,4.5857,-4.5445,468.8258,14.9546,13.2001,6.7632,4.5742,2.7603,-2.7869,14.1624,0.95556,0.83776,0.42036,62.6641,0.090838,-0.0906,0.343435,0.150966,0.588528,-0.098747,0.492553,0.26396,0.492018,0.122724,1.398506,0.240539,0.617932,-0.341376,0.294769,0.251599,0.281404,0.275967,0.321462,0.195048,0.191752,0.228621,0
102434,1,100131,736.2193,96.9656,96.1134,11.6074,41.5999,4.6136,-4.5256,430.7898,24.9154,24.2075,5.8684,8.5567,2.6392,-2.6566,13.6243,1.1441,0.98166,0.55236,93.7556,0.095062,-0.094466,0.252788,0.241766,0.605778,-0.126782,0.489308,0.410739,0.486272,0.176589,1.264888,0.372237,0.673488,-0.504606,0.194975,0.373131,0.182094,0.398798,0.226203,0.300658,0.038355,0.342272,0
102445,1,91633,943.4887,73.1561,73.1835,8.7942,25.3831,3.1971,-3.0726,426.7677,12.8533,10.9442,6.6351,4.1646,2.686,-2.689,17.6731,1.0612,0.95391,0.43891,50.626,0.096323,-0.095764,0.304523,0.129564,0.546801,-0.112611,0.43401,0.283322,0.43416,0.121206,1.344799,0.198859,0.555867,-0.33082,0.242965,0.243443,0.220375,0.280754,0.277482,0.177733,0.151108,0.214914,0
102445,2,91672,943.5017,73.0713,73.1274,8.778,25.2401,3.2008,-3.0807,426.3476,11.6677,10.1687,5.6244,3.6962,2.4335,-2.4208,17.6887,1.0495,0.95248,0.41111,52.959,0.086573,-0.086018,0.307542,0.125918,0.543311,-0.109733,0.433426,0.276209,0.433539,0.117952,1.349562,0.193103,0.551971,-0.321917,0.24749,0.236891,0.225385,0.273364,0.28117,0.17284,0.158207,0.20905,0
102445,3,9093,918.7631,93.2429,87.833,14.1241,32.0176,5.0199,-5.0138,451.1471,38.5494,37.173,9.0261,15.6506,2.6087,-2.6122,16.3239,1.4221,0.92365,1.0351,193.4681,0.10245,-0.10322,0.211335,0.260577,0.677071,-0.206451,0.470208,0.521001,0.47135,0.233418,1.194376,0.409537,0.706987,-0.640296,0.101239,0.471355,0.064414,0.534134,0.162455,0.350859,-0.082066,0.420386,0
102471,1,90174,959.4829,74.6639,74.0503,13.0067,24.2664,4.6858,-4.6201,478.3172,49.0444,51.7307,7.1779,7.0355,2.6956,-2.6735,16.1831,1.7777,1.5064,0.66869,63.0587,0.099086,-0.098464,0.432273,0.047991,0.51951,-0.039311,0.4785,0.118101,0.480239,0.043609,1.551934,0.066092,0.523994,-0.118935,0.411511,0.087508,0.40466,0.099215,0.423076,0.064874,0.377414,0.078085,0
102471,2,90187,959.4422,74.6475,74.0624,12.8945,23.9795,4.6391,-4.594,445.512,14.3907,13.4758,5.369,3.9362,2.4126,-2.3624,17.2121,0.95509,0.77454,0.51048,46.8018,0.098235,-0.097924,0.281981,0.170449,0.605591,-0.152759,0.452476,0.363378,0.452673,0.162316,1.305599,0.266676,0.615677,-0.443068,0.196603,0.32605,0.164155,0.378992,0.24453,0.236034,0.075623,0.28625,0
102471,3,90183,959.4709,74.6766,74.0342,13.0137,24.1002,4.6846,-4.6259,458.6655,17.276,16.1562,6.4296,5.1764,2.6173,-2.6046,16.7277,1.0156,0.80151,0.55653,33.6755,0.10383,-0.10362,0.297775,0.167692,0.614934,-0.149125,0.465414,0.347169,0.465679,0.15908,1.327547,0.265416,0.625464,-0.434313,0.214669,0.31961,0.183357,0.370839,0.261288,0.231796,0.095672,0.28091,0
102502,1,47317,565.4609,22.6698,21.6097,5.8525,6.816,2.1591,-2.1365,370.7616,8.0932,6.5685,4.6653,2.9095,2.3093,-2.303,12.2017,0.42935,0.308,0.29208,14.6311,0.066905,-0.067217,0.254886,0.204956,0.484573,-0.064263,0.44281,0.311467,0.436355,0.114893,1.281281,0.296452,0.574904,-0.359237,0.232093,0.269556,0.229174,0.276648,0.244104,0.235061,0.120575,0.24563,0
102502,2,57037,570.134,30.2993,29.7831,6.9561,11.6879,2.0408,-2.0644,348.397,27.7722,27.5841,6.3066,8.8402,1.8534,-1.883,13.161,1.1052,0.88716,0.60225,41.2117,0.070929,-0.071175,0.281844,0.116735,0.420112,-0.040805,0.387787,0.195778,0.38739,0.069272,1.322311,0.16669,0.468128,-0.211674,0.26648,0.158157,0.264266,0.163296,0.274609,0.135911,0.200189,0.144963,0
102502,3,75844,592.1918,41.0537,40.6662,6.072,10.7687,2.3692,-2.2976,379.5043,11.2452,9.8557,5.2359,3.8261,2.3928,-2.3689,12.483,0.76662,0.67652,0.33726,23.5321,0.070212,-0.069684,0.304685,0.126374,0.452322,-0.042923,0.420371,0.19513,0.418371,0.073839,1.352368,0.18459,0.505177,-0.227001,0.288822,0.169802,0.286604,0.175027,0.297209,0.146511,0.217898,0.155402,0
102504,1,2946,1074.0229,44.9297,41.1767,14.9917,19.2549,4.8465,-4.7977,465.0275,5.022,2.9209,4.0581,2.5797,2.1899,-2.111,18.4756,0.72267,0.31162,0.65423,28.0571,0.089653,-0.089312,0.462471,0.002383,0.467395,-0.002539,0.464825,0.005386,0.464855,0.00246,1.588043,0.003761,0.467315,-0.006685,0.460992,0.004919,0.460325,0.00595,0.461837,0.003424,0.459302,0.004216,0
102504,2,5674,1791.8624,266.216,262.2849,39.7839,472.8333,17.1605,-17.3825,538.8885,46.1377,44.6519,12.7343,10.1685,3.6576,-3.767,26.576,3.0663,1.9818,2.2557,1418.5,0.20096,-0.20198,0.416979,0.067639,0.65537,-0.207696,0.470681,0.225641,0.469103,0.119541,1.508384,0.115157,0.605061,-0.394498,0.244004,0.27798,-0.014281,0.586204,0.353154,0.137778,0.243736,0.17491,0
102515,1,87028,959.2496,118.2736,114.2,13.0878,34.236,5.8634,-5.8755,538.8362,78.3582,78.7904,8.7554,20.85,2.9212,-2.9143,14.4174,2.0623,1.9771,0.74169,116.8161,0.10131,-0.10151,0.238325,0.313353,0.817552,-0.263213,0.547612,0.539159,0.55317,0.29055,1.195404,0.546307,0.845982,-0.796072,0.09286,0.58602,0.041201,0.672985,0.173929,0.429444,-0.129201,0.517784,0
102515,2,87000,959.4256,118.1453,114.048,13.0553,34.3331,5.8706,-5.8779,440.9069,21.2065,20.5538,4.7655,7.6889,2.307,-2.3018,17.3536,1.4531,1.2907,0.54956,56.0567,0.1149,-0.11532,0.277559,0.170298,0.58937,-0.140235,0.448243,0.359599,0.448609,0.156736,1.301381,0.263853,0.607074,-0.430757,0.199508,0.317162,0.172001,0.363617,0.242865,0.233032,0.079281,0.280266,0
102515,3,86967,959.2458,118.2549,114.2122,12.9448,34.4697,5.7477,-5.764,451.894,21.5631,20.5883,6.1022,7.7969,2.5392,-2.5407,16.9401,1.5524,1.362,0.62334,54.2188,0.11443,-0.11478,0.303285,0.154958,0.587637,-0.128195,0.45856,0.320157,0.458943,0.14292,1.338952,0.24264,0.603388,-0.392653,0.231882,0.289097,0.206615,0.331704,0.271565,0.212219,0.122431,0.255359,0
102607,1,50543,1007.8276,92.7287,90.2017,15.5223,26.4208,6.0079,-5.9869,458.1981,41.8097,42.3558,7.8255,8.3336,2.5709,-2.5515,17.7077,2.0053,1.6763,0.96135,134.7813,0.12704,-0.12696,0.410907,0.04692,0.507975,-0.049849,0.456098,0.12218,0.457971,0.04873,1.512585,0.069487,0.506827,-0.132802,0.381225,0.097716,0.367833,0.118461,0.398128,0.067815,0.347966,0.083492,0
102607,2,79475,785.6367,290.5798,252.6402,15.1155,42.3867,4.7817,-4.7756,364.1196,74.9162,71.1517,6.7262,15.2543,1.9766,-1.9771,16.6829,3.7659,3.5551,0.92647,278.8596,0.10188,-0.10178,0.177414,0.237441,0.523418,-0.10561,0.415376,0.481275,0.417061,0.165071,1.177982,0.337367,0.597917,-0.49208,0.128968,0.366558,0.118015,0.393201,0.154701,0.296452,-0.017314,0.329385,0
102607,3,27802,527.8436,229.9276,282.8511,14.4711,61.2379,3.3508,-3.3819,299.9299,59.6739,66.2522,7.8311,20.3083,1.7821,-1.7732,13.5744,2.6947,2.9526,0.75297,126.3727,0.073433,-0.07431,0.168625,0.247806,0.517562,-0.102888,0.41489,0.486324,0.416669,0.16626,1.165978,0.351527,0.601213,-0.50033,0.124062,0.373266,0.11455,0.397752,0.147876,0.305256,-0.025455,0.335862,0
102629,1,73103,913.8485,86.7105,84.8044,17.4472,29.2881,6.9523,-6.8892,443.4523,14.2333,13.484,4.7288,4.0473,2.367,-2.3823,16.4606,1.1556,0.97325,0.54336,25.5159,0.12199,-0.12152,0.315426,0.140039,0.565698,-0.110889,0.455224,0.285556,0.455212,0.1257,1.359208,0.217701,0.582262,-0.345203,0.255667,0.254147,0.235616,0.288278,0.288836,0.188964,0.157185,0.226381,0
102629,2,25161,880.1856,61.8552,57.1528,16.4476,18.8472,6.0481,-5.9903,433.4779,11.3596,9.6632,5.693,3.187,2.5183,-2.5063,16.2342,0.91748,0.64986,0.58042,19.7341,0.11759,-0.11735,0.318711,0.130328,0.539429,-0.09294,0.448156,0.260775,0.447763,0.110708,1.367173,0.199341,0.560396,-0.305739,0.271067,0.225193,0.256727,0.250451,0.297356,0.171468,0.180755,0.203083,0
102629,3,20958,881.5204,61.9373,56.9585,16.4443,20.2297,5.9249,-5.8741,467.0582,41.8543,42.4203,7.6667,10.5848,2.4499,-2.4319,15.1683,1.2282,1.0043,0.66745,46.0615,0.11536,-0.11549,0.153309,0.355508,0.756131,-0.254105,0.505552,0.654709,0.505425,0.302382,1.09693,0.566294,0.813135,-0.835263,0.022687,0.615237,-0.016839,0.684756,0.094759,0.468125,-0.223638,0.554495,0
102659,1,86119,1003.0195,63.3152,60.4994,12.3136,20.1873,4.5015,-4.5017,425.4094,8.7149,6.9174,5.1484,2.8096,2.3782,-2.374,18.8538,0.98654,0.7844,0.55775,40.2802,0.10292,-0.10308,0.324082,0.101019,0.520733,-0.095291,0.425183,0.233349,0.425273,0.098509,1.375657,0.154148,0.524008,-0.268398,0.270161,0.197491,0.248582,0.232109,0.300584,0.141372,0.198366,0.172253,0
102659,3,50350,1003.6654,62.0711,58.9682,11.7949,18.7036,4.1237,-4.1236,422.3845,8.6182,6.9026,5.0177,2.633,2.3175,-2.3161,19.002,0.98643,0.7818,0.55583,37.5466,0.099187,-0.09893,0.32598,0.096046,0.512647,-0.090302,0.422096,0.223546,0.422186,0.093478,1.379133,0.145973,0.51587,-0.254668,0.275008,0.187389,0.254679,0.220043,0.303766,0.134265,0.206746,0.163548,0
102671,1,108473,795.7224,72.5605,71.4146,10.3453,21.1944,3.9393,-3.9245,408.1997,15.1832,14.391,4.7148,5.3298,2.3861,-2.3917,15.5805,1.1194,0.9754,0.52287,23.7567,0.088272,-0.088015,0.287518,0.151641,0.528204,-0.094788,0.437356,0.300254,0.436286,0.121013,1.323481,0.227181,0.561247,-0.338407,0.240789,0.249567,0.228423,0.272401,0.266301,0.194774,0.138153,0.227149,0
102671,3,108250,795.8263,72.7093,71.5639,10.3248,21.0808,3.9485,-3.913,396.2,19.8068,19.1176,6.1629,5.939,2.4321,-2.4228,16.0819,1.3724,1.169,0.62685,18.4664,0.10542,-0.10525,0.315238,0.101718,0.471777,-0.059702,0.414768,0.202706,0.414473,0.078771,1.366996,0.15009,0.496574,-0.22196,0.286285,0.163841,0.279042,0.177506,0.302012,0.129272,0.218423,0.149528,0
102684,1,103953,798.2811,63.8249,62.8018,9.3513,24.0298,4.153,-4.1143,396.1321,20.0263,19.5305,6.566,5.6638,2.4084,-2.3969,16.1651,1.5314,1.2818,0.73264,37.1925,0.10628,-0.1065,0.407522,-0.01427,0.38356,0.009979,0.393713,-0.021469,0.393392,-0.012008,1.505516,-0.023991,0.381175,0.033168,0.412562,-0.024428,0.414026,-0.027041,0.409785,-0.018688,0.422448,-0.0221,0
102684,2,2090,792.6294,80.1959,79.9235,16.7435,87.0833,4.739,-4.9244,452.24,49.5048,48.3913,10.2069,139.3333,2.7087,-2.8185,14.0797,1.107,0.14382,1.0966,522.5,0.09294,-0.089607,-0.004813,0.577734,0.908446,-0.3596,0.572444,1.023884,0.560122,0.456873,0.855793,0.907532,1.031268,-1.275801,-0.176648,0.940576,-0.221177,1.023129,-0.082591,0.737412,-0.566641,0.858851,0
102697,1,98328,802.698,105.7522,102.5957,10.7246,41.3143,4.5258,-4.5076,402.5132,20.0212,19.3352,4.8234,7.9573,2.3388,-2.3367,15.9022,1.4907,1.3034,0.60906,36.7856,0.097942,-0.098178,0.266626,0.169249,0.528981,-0.099827,0.433262,0.328507,0.432428,0.131275,1.292952,0.252746,0.569069,-0.369817,0.218683,0.27298,0.206655,0.295939,0.244752,0.21524,0.105664,0.249034,0
102697,2,108791,794.1504,105.1476,102.7972,10.5341,43.1882,4.423,-4.4082,408.077,21.0459,20.5767,4.1427,6.9666,2.1805,-2.1818,15.5097,1.3472,1.1933,0.54284,28.3015,0.08982,-0.08985,0.25458,0.193276,0.553099,-0.11323,0.444923,0.367519,0.443769,0.149441,1.273384,0.290704,0.599493,-0.421348,0.200262,0.31105,0.186711,0.336963,0.229782,0.245531,0.071402,0.283834,0
102697,3,80185,818.6528,103.7068,99.5449,11.5182,40.5384,4.5221,-4.5362,421.176,25.0575,24.2291,6.3517,6.0499,2.5361,-2.5333,15.5169,1.4659,1.3019,0.61172,37.1399,0.10586,-0.1061,0.280725,0.171534,0.554926,-0.107802,0.450649,0.334325,0.449674,0.137271,1.312172,0.25899,0.591361,-0.384029,0.227663,0.283246,0.21348,0.309625,0.256645,0.220723,0.111507,0.257468,0
102747,1,98054,834.9227,76.584,73.1325,10.397,22.9742,4.511,-4.4883,465.5732,32.0906,30.5296,7.9245,35.5397,2.4674,-2.4583,14.3781,1.3181,1.0893,0.72559,223.3576,0.097616,-0.097914,0.32671,0.166279,0.604777,-0.115323,0.492884,0.322965,0.491368,0.140141,1.378604,0.257616,0.634194,-0.387676,0.267308,0.285565,0.250036,0.316343,0.299955,0.218238,0.152074,0.258086,1
102747,2,98068,835.0397,76.5576,73.1029,10.4107,23.0153,4.4858,-4.459,424.447,15.9087,14.3145,6.1406,4.5739,2.865,-2.8774,15.7178,1.0681,0.87042,0.56148,19.3772,0.10082,-0.10106,0.278687,0.174514,0.558985,-0.111473,0.451618,0.341287,0.450417,0.1412,1.308061,0.264448,0.595957,-0.394363,0.222511,0.290823,0.207183,0.318849,0.253198,0.225631,0.10383,0.263929,1
102747,3,3909,872.7133,45.2907,40.7322,11.9845,16.1529,4.4666,-4.4867,452.1941,33.9195,32.7507,8.7939,21.838,2.5266,-2.4787,15.5143,1.3022,0.98582,0.91876,111.6857,0.096207,-0.098185,0.695305,-0.278162,0.229548,0.194409,0.420596,-0.515184,0.42068,-0.233187,1.956265,-0.438909,0.183255,0.644282,0.792929,-0.474516,0.821484,-0.52519,0.739078,-0.363475,0.984991,-0.429405,1
102759,1,83773,1025.7419,106.601,105.2657,13.7116,37.5495,4.7164,-4.7369,430.1292,21.5229,22.1011,5.6337,5.6726,2.4808,-2.4562,19.0693,1.6486,1.4493,0.69666,87.3545,0.10199,-0.10299,0.329412,0.098196,0.529635,-0.101089,0.427566,0.234062,0.428064,0.100236,1.383108,0.150838,0.528626,-0.273349,0.270114,0.20111,0.244112,0.241868,0.30378,0.140749,0.200439,0.172724,0
102759,2,84429,1019.2421,102.9295,100.8635,13.1146,35.9885,4.6688,-4.659,431.6253,12.3239,10.9795,5.3301,4.5482,2.4631,-2.4614,18.8668,1.5617,1.3843,0.66341,78.0305,0.10526,-0.10597,0.337415,0.092439,0.524586,-0.09387,0.430098,0.218024,0.430278,0.093646,1.395036,0.142116,0.524209,-0.255329,0.282735,0.187858,0.25902,0.225168,0.313769,0.131948,0.217129,0.161741,0
102759,3,83664,1023.7358,103.3319,100.7788,13.5553,36.7916,4.74,-4.721,474.3974,56.0456,58.1323,8.5353,12.0241,2.5703,-2.5425,17.4128,2.0563,1.6999,1.002,125.4333,0.10664,-0.10682,0.27765,0.192192,0.65681,-0.185035,0.467831,0.391157,0.470813,0.189777,1.287296,0.314861,0.661257,-0.517688,0.171645,0.380907,0.128275,0.45042,0.231488,0.270983,0.034997,0.33068,0
102760,1,95888,897.2762,68.1675,65.3085,15.5714,18.5902,6.781,-6.7606,460.8177,22.9485,21.2284,8.1446,7.4297,3.0799,-3.0634,15.5984,1.2584,1.1295,0.61068,33.5625,0.12296,-0.1222,0.355501,0.117357,0.572044,-0.099282,0.472445,0.236061,0.472877,0.108757,1.418488,0.186425,0.582216,-0.297201,0.301096,0.218725,0.281794,0.250878,0.331465,0.160453,0.217862,0.193646,0
102760,2,95894,897.3041,68.1333,65.2494,15.5546,18.631,6.8224,-6.7727,423.4064,25.8123,25.9714,6.6985,6.3213,2.4617,-2.4575,17.0003,1.4651,1.1838,0.71652,101.3679,0.13475,-0.13447,0.358749,0.072047,0.480397,-0.050872,0.429603,0.146956,0.430155,0.060878,1.429705,0.109162,0.49206,-0.168078,0.333012,0.123785,0.32548,0.137228,0.347195,0.094532,0.283052,0.111867,0
102760,3,34669,941.077,50.087,48.7952,15.1681,13.5957,6.0855,-6.1374,460.9281,38.3083,37.8673,7.6863,13.009,2.3369,-2.3228,16.4546,1.7032,1.3793,0.93244,143.8548,0.12063,-0.12131,0.53962,-0.083592,0.373065,0.082533,0.454019,-0.190148,0.455811,-0.083218,1.708106,-0.128951,0.37276,0.225804,0.5863,-0.166121,0.605496,-0.196636,0.559828,-0.117884,0.646026,-0.144379,0
102818,1,103747,817.6555,78.4634,75.9934,13.5747,27.8815,5.4799,-5.4249,402.0761,16.0352,14.5141,3.9334,3.7294,2.1214,-2.126,16.2512,1.1967,0.994,0.59666,25.6102,0.11074,-0.11035,0.273291,0.157479,0.530174,-0.103891,0.43051,0.337221,0.428539,0.12894,1.305314,0.232089,0.56065,-0.358287,0.221502,0.264025,0.207191,0.290048,0.249895,0.204135,0.11362,0.23972,0
102822,1,2443,755.9839,67.5016,64.5792,16.3053,78.8065,6.0361,-5.9944,468.4451,41.8639,40.4309,11.1447,38.1719,3.5414,-3.5198,12.9451,0.97375,0.49403,0.79151,407.1667,0.057537,-0.057507,0.686821,-0.289702,0.252258,0.16258,0.408501,-0.468233,0.406742,-0.217415,1.947397,-0.462314,0.17919,0.614273,0.761161,-0.453459,0.77845,-0.486737,0.720743,-0.362537,0.951956,-0.41644,0
102822,2,7609,1151.0021,250.4528,272.2736,31.0775,245.4516,10.7572,-10.8804,495.232,69.1605,69.0236,12.8248,41.1297,3.6088,-3.6299,18.4676,1.8195,0.99213,1.4856,760.9,0.10185,-0.1032,0.297251,0.171274,0.723131,-0.257327,0.462866,0.436495,0.466797,0.214199,1.318644,0.282194,0.68789,-0.602086,0.120005,0.441113,0.007046,0.601957,0.223241,0.276978,0.00987,0.347298,0
102839,3,6130,999.4522,64.2469,62.8316,18.0982,24.7177,5.8459,-5.9353,444.984,41.367,42.3551,6.5862,6.5213,2.3208,-2.2796,18.1108,1.9242,1.7445,0.82015,103.8983,0.12644,-0.12801,0.519384,-0.074266,0.360522,0.084367,0.44317,-0.167022,0.445009,-0.079258,1.6817,-0.119668,0.365665,0.215676,0.569634,-0.158679,0.593869,-0.195545,0.540772,-0.108589,0.622026,-0.134385,0
102847,1,119582,719.0674,30.175,29.8899,7.1124,12.1625,2.3175,-2.2317,405.0069,15.59,13.7937,7.5545,7.5843,2.471,-2.4056,14.2147,0.60559,0.39375,0.43523,56.1945,0.08315,-0.083933,0.234406,0.237259,0.576008,-0.12279,0.466442,0.429536,0.461572,0.171147,1.245185,0.353675,0.64326,-0.48884,0.17981,0.361368,0.168099,0.384558,0.20932,0.292914,0.026831,0.332682,0
102847,2,2471,1053.2337,346.1582,391.2756,35.3665,43.3509,15.1557,-16.0695,435.3654,40.8963,40.1448,11.8896,26.0105,3.1758,-3.2504,19.011,4.3826,2.5452,3.3864,205.9167,0.19784,-0.20941,0.387689,0.044146,0.503495,-0.070719,0.430216,0.134576,0.432074,0.05798,1.47343,0.067968,0.492064,-0.163107,0.338173,0.11954,0.306387,0.165453,0.367081,0.073522,0.309659,0.092851,0
102847,3,17094,1917.1802,648.7044,581.7653,40.5873,70.6364,21.0042,-21.0867,552.4338,111.371,121.933,16.3633,19.2935,4.8548,-4.84,27.5689,8.0885,6.7976,3.5606,240.7606,0.21889,-0.22049,0.440975,0.057881,0.62484,-0.125436,0.491821,0.161216,0.497065,0.090988,1.543046,0.106901,0.598993,-0.274904,0.340941,0.199016,0.262776,0.311812,0.399779,0.110551,0.313569,0.139428,0
102849,1,83039,1041.9525,100.7891,97.8197,14.2966,28.8831,5.6101,-5.6495,472.3351,19.4749,18.9179,3.8546,6.0657,2.1369,-2.1522,17.6136,1.1058,0.95541,0.51106,53.8166,0.09828,-0.098424,0.281172,0.18345,0.656524,-0.190254,0.465022,0.400312,0.465418,0.187767,1.298189,0.293508,0.653795,-0.512058,0.169537,0.376728,0.120022,0.4541,0.233006,0.263232,0.039519,0.323189,0
102849,2,12831,1068.2411,91.7677,89.7814,15.4899,32.1579,5.7497,-5.7786,484.7069,15.8048,14.661,6.0368,4.9579,2.5751,-2.548,17.6091,1.0859,0.92518,0.56865,77.7636,0.10319,-0.10364,0.32657,0.14798,0.643194,-0.168319,0.474534,0.326755,0.474668,0.158649,1.366643,0.240735,0.634094,-0.433389,0.224277,0.318797,0.174357,0.394427,0.282884,0.217511,0.120434,0.268941,0
102849,3,10729,1066.8188,93.1609,90.9871,15.4212,30.1376,6.0177,-6.0016,492.4575,20.6705,18.9129,8.213,6.065,3.0789,-3.117,17.3168,1.1285,0.92815,0.61366,55.8802,0.11152,-0.11117,0.32548,0.156366,0.658461,-0.176188,0.481793,0.33558,0.482024,0.166739,1.3619,0.257319,0.64947,-0.455165,0.219055,0.334822,0.16773,0.412848,0.279991,0.229112,0.109118,0.283106,0
102870,1,42819,818.0546,83.4066,80.1622,14.251,23.3346,4.3915,-4.3431,447.4596,27.0767,25.4328,7.137,8.2582,2.465,-2.4993,14.6326,1.3073,1.1516,0.60564,97.3159,0.09586,-0.095313,0.308157,0.170389,0.575744,-0.103851,0.475156,0.300364,0.475148,0.134239,1.346546,0.267085,0.614187,-0.376449,0.257641,0.277708,0.244683,0.301998,0.285147,0.217828,0.14293,0.253163,0
102870,3,5528,824.1525,105.1629,82.7558,15.0425,18.3046,4.6492,-4.7809,442.4482,41.9997,32.9363,7.9589,5.1471,2.5627,-2.7042,14.8486,0.87195,0.31452,0.58523,47.2479,0.0905,-0.091014,0.15042,0.350249,0.666488,-0.185587,0.500306,0.696489,0.490365,0.259331,1.128717,0.51466,0.765065,-0.741272,0.062003,0.548244,0.041607,0.588453,0.10962,0.439001,-0.166075,0.501182,0
102915,1,131868,654.5937,69.0476,68.6409,10.6974,46.9783,3.0544,-3.0521,453.3661,38.0075,36.6463,7.897,32.6406,2.2007,-2.2061,11.5367,0.45472,0.2985,0.32878,298.3439,0.05692,-0.056907,0.124527,0.502368,0.775442,-0.208798,0.618678,0.733813,0.59311,0.326088,1.05984,0.786606,0.95598,-0.965248,0.03849,0.717408,0.02341,0.750098,0.084381,0.600669,-0.264749,0.660018,0
102915,2,11102,692.2892,43.3922,41.4033,12.487,28.4667,3.5934,-3.6128,396.8459,23.5873,22.4458,7.6049,19.4091,2.0091,-2.0249,13.9634,0.54947,0.26926,0.47849,252.3182,0.084639,-0.085019,0.122216,0.396371,0.65964,-0.181603,0.510728,0.689937,0.495817,0.268787,1.081508,0.586025,0.788106,-0.781825,0.045967,0.579448,0.03155,0.609479,0.086918,0.479335,-0.20046,0.534447,0
102915,3,38444,614.9299,59.4936,59.5531,8.8887,93.0847,2.4853,-2.4952,419.6328,33.3971,32.4381,5.8952,87.3727,1.5689,-1.5671,11.7158,0.4682,0.35186,0.3066,317.719,0.047199,-0.047314,0.118254,0.489813,0.725514,-0.186701,0.598392,0.731284,0.568915,0.304851,1.063057,0.746297,0.915797,-0.916595,0.04359,0.682979,0.031548,0.70992,0.083228,0.578702,-0.243801,0.627119,0
102924,1,38314,849.0319,79.9081,84.1669,15.0039,31.6122,5.6995,-5.5737,394.5018,19.0682,18.3804,7.3686,5.3994,2.4159,-2.3786,17.2349,1.5495,1.1501,0.93665,71.0835,0.13515,-0.13504,0.353998,0.047794,0.435032,-0.034159,0.401029,0.104114,0.401322,0.040533,1.424027,0.070671,0.442487,-0.111766,0.336735,0.082301,0.331587,0.091403,0.346274,0.062751,0.303578,0.07434,0
102924,2,102237,840.5639,114.7871,113.8279,14.8755,46.1984,5.6445,-5.5515,393.1952,18.4932,17.5916,6.1434,5.9028,2.5452,-2.535,17.05,1.7356,1.5251,0.75252,44.8015,0.12982,-0.12933,0.272735,0.143314,0.507693,-0.094571,0.414802,0.299352,0.414694,0.117878,1.303086,0.212811,0.535805,-0.328531,0.224726,0.242224,0.211202,0.266953,0.250995,0.186676,0.126633,0.219117,0
102924,3,94661,844.5758,120.0537,117.7967,15.1707,52.6479,5.723,-5.6426,410.3853,20.1797,19.401,7.2232,6.2004,2.6833,-2.6626,16.4341,1.9664,1.7154,0.81379,62.8559,0.12675,-0.12647,0.323498,0.102862,0.491938,-0.067588,0.425376,0.207992,0.425441,0.084513,1.377155,0.154556,0.512318,-0.235687,0.289139,0.173787,0.279476,0.191498,0.307933,0.133968,0.218772,0.157192,0
102935,1,96105,899.8694,108.0956,107.3314,14.2758,33.5328,5.9868,-5.9266,405.6125,17.2455,16.4578,5.3772,5.5414,2.4043,-2.4091,17.7052,1.5517,1.3547,0.68301,56.7326,0.1193,-0.11896,0.277745,0.142099,0.530966,-0.111331,0.419651,0.31162,0.419819,0.126757,1.308214,0.213625,0.548006,-0.348339,0.21843,0.256472,0.198682,0.290407,0.251375,0.191172,0.118625,0.228727,0
102935,2,95458,899.9515,108.2382,107.4482,14.2852,32.4908,5.9961,-5.9354,405.7229,17.2866,16.7605,4.7711,5.4111,2.2484,-2.2546,17.7152,1.6883,1.4875,0.68942,66.5676,0.11586,-0.11547,0.301189,0.116158,0.507521,-0.090413,0.417131,0.255565,0.417293,0.103287,1.343899,0.174139,0.521791,-0.283955,0.253127,0.209073,0.237235,0.236449,0.279805,0.15606,0.171601,0.186588,0
102935,3,95797,900.5965,107.8245,106.9901,14.449,33.1019,6.0086,-5.964,412.5751,22.4821,22.4675,5.8003,6.1259,2.3947,-2.3984,17.4683,1.8705,1.6151,0.74599,76.1502,0.12055,-0.12035,0.337065,0.083847,0.484145,-0.063621,0.420563,0.185214,0.420763,0.073615,1.39879,0.124697,0.495336,-0.202611,0.303628,0.14919,0.292914,0.167843,0.322147,0.112006,0.244921,0.133569,0
102945,1,103034,815.5118,49.1249,47.1346,9.8349,13.4106,3.9371,-3.8622,455.4127,11.2243,9.5013,5.6368,3.5612,2.6228,-2.6194,14.32,0.68327,0.53908,0.38831,32.5131,0.091589,-0.091049,0.311167,0.176896,0.591834,-0.110872,0.48542,0.311743,0.484303,0.140467,1.350456,0.277727,0.629059,-0.39205,0.257875,0.289027,0.243941,0.314785,0.287049,0.226213,0.138273,0.263712,0
102978,1,100829,838.0972,90.0449,89.0901,13.8599,39.4171,5.2275,-5.2093,437.1866,28.0203,26.492,5.844,6.8252,2.2969,-2.309,15.3257,1.1736,0.89878,0.71057,56.4868,0.099987,-0.10009,0.236993,0.238824,0.637052,-0.165866,0.475033,0.469472,0.473542,0.200385,1.241553,0.366712,0.678005,-0.554919,0.15279,0.408834,0.128059,0.453025,0.199151,0.312814,-0.012014,0.369307,0
102978,2,80049,839.0839,92.4098,91.7851,13.6495,34.5188,5.1664,-5.1575,400.6624,40.0995,40.885,5.8429,7.1844,2.296,-2.3032,16.8207,1.7317,1.5879,0.71224,51.7447,0.10798,-0.10809,0.2106,0.22653,0.590374,-0.15748,0.433966,0.468021,0.435043,0.190102,1.207487,0.341519,0.628923,-0.526254,0.130851,0.387696,0.107466,0.429537,0.174774,0.296659,-0.025545,0.350295,0
102978,3,6172,883.2699,74.6386,71.3073,14.3242,35.0682,5.5512,-5.6028,405.9701,11.3601,10.2246,4.56,2.9251,2.2337,-2.2772,17.3859,1.1421,0.86477,0.72384,53.2069,0.11352,-0.11323,0.284259,0.137416,0.520623,-0.101005,0.42101,0.296641,0.420625,0.1182,1.3195,0.204756,0.54047,-0.325473,0.232518,0.239654,0.21654,0.267605,0.261164,0.18158,0.136857,0.215744,0
102982,1,97524,865.2763,119.1725,119.0517,14.3452,42.1634,6.152,-6.1373,395.5584,27.7654,27.4011,5.1497,9.4886,2.25,-2.251,17.5272,2.2866,2.0716,0.86989,89.226,0.12994,-0.1301,0.33657,0.068163,0.458419,-0.053484,0.404564,0.1631,0.404869,0.060842,1.400089,0.099027,0.466218,-0.166833,0.308398,0.122794,0.299165,0.138786,0.324051,0.091608,0.260321,0.109728,0
102982,2,97413,865.4332,119.2278,119.108,14.4862,43.1604,6.1845,-6.1722,375.4467,22.3665,22.6803,4.8198,5.6675,2.1201,-2.1185,18.4145,2.0827,1.8417,0.92226,89.6164,0.13531,-0.1352,0.275104,0.115929,0.476541,-0.086027,0.390605,0.269972,0.390881,0.100963,1.310075,0.168604,0.493515,-0.278808,0.229649,0.205379,0.215191,0.23071,0.254764,0.154585,0.148813,0.18387,0
102982,3,97303,865.6801,118.9509,118.8012,14.3181,42.0315,6.1364,-6.114,444.7075,27.7883,26.3931,6.3204,9.7391,2.573,-2.5694,15.5273,1.4931,1.2994,0.71698,49.8478,0.1144,-0.11414,0.280606,0.189538,0.610418,-0.141068,0.470008,0.376021,0.469899,0.165156,1.305229,0.294992,0.6376,-0.455632,0.20642,0.335588,0.182893,0.376834,0.247434,0.252628,0.074108,0.300628,0
102988,1,81948,1056.6577,121.8668,118.9174,16.4795,45.3002,6.1301,-6.0683,462.9658,21.372,20.5366,4.9074,7.2966,2.3662,-2.367,18.2135,1.4515,1.2183,0.72162,111.1913,0.11271,-0.11222,0.295113,0.158891,0.623015,-0.16699,0.454471,0.357853,0.454961,0.164239,1.323144,0.251795,0.620031,-0.4487,0.195706,0.330093,0.15101,0.399822,0.252185,0.229508,0.08322,0.28202,0
102988,2,79570,1057.119,120.8801,117.9954,16.516,44.577,6.151,-6.1008,479.0887,29.447,29.1112,7.2979,8.6022,2.8004,-2.7799,17.6289,1.4685,1.2033,0.7943,92.8471,0.12443,-0.12421,0.287189,0.181576,0.664739,-0.193834,0.468895,0.39878,0.469762,0.189194,1.306336,0.292349,0.659993,-0.517104,0.170991,0.380402,0.117808,0.46289,0.237094,0.263393,0.042673,0.324034,0
102988,3,10560,1017.3941,101.2552,97.028,18.0926,33.738,6.9354,-6.8741,444.7447,19.976,18.2767,7.027,5.7423,2.6906,-2.6989,18.2799,1.3954,0.98251,0.85239,90.2564,0.12698,-0.12581,0.348245,0.094997,0.537103,-0.093177,0.443096,0.21768,0.443578,0.094686,1.411246,0.146834,0.538588,-0.25828,0.294314,0.190041,0.271741,0.225848,0.324804,0.134563,0.226861,0.164472,0
102990,1,89921,942.6233,99.8521,98.4796,16.34,39.7353,5.9153,-5.902,487.875,27.1953,25.7958,7.929,14.4614,2.6354,-2.6265,15.457,1.3926,1.1503,0.73124,51.1205,0.11586,-0.11597,0.349986,0.146273,0.621753,-0.124944,0.496043,0.284053,0.496606,0.136381,1.405902,0.237144,0.633967,-0.373355,0.28079,0.274801,0.255697,0.316535,0.319427,0.200853,0.177215,0.242447,0
102990,2,10218,973.6478,88.3836,87.7833,17.0093,29.9648,5.5789,-5.5264,472.512,15.5671,13.8004,6.5986,5.6893,2.6324,-2.6873,16.4644,1.128,0.89724,0.71757,26.9604,0.1114,-0.11091,0.33991,0.136325,0.608137,-0.131095,0.476403,0.283707,0.476654,0.134235,1.391256,0.218935,0.611234,-0.365822,0.265251,0.269168,0.234684,0.317992,0.30745,0.191744,0.168377,0.233979,0
102993,1,94395,912.5476,99.6808,97.2611,12.3004,30.6477,4.8153,-4.8418,411.2265,17.1787,15.978,5.1443,5.2158,2.3918,-2.4179,17.7155,1.395,1.1683,0.67676,63.3949,0.10546,-0.1059,0.27491,0.149359,0.539771,-0.116043,0.42409,0.327626,0.424128,0.133351,1.303761,0.224754,0.559294,-0.367221,0.211816,0.270423,0.190948,0.306195,0.2467,0.201464,0.10698,0.240883,0
102993,2,90798,921.6312,101.6409,99.2122,13.3807,32.2551,4.8155,-4.8433,405.2234,15.5837,14.9282,4.0574,4.7021,2.1676,-2.1501,18.1544,1.4576,1.2056,0.72606,54.5006,0.10298,-0.10355,0.275454,0.140791,0.526945,-0.110962,0.416168,0.315152,0.416225,0.126552,1.305624,0.21069,0.544361,-0.348169,0.214927,0.256372,0.19464,0.291004,0.248435,0.190443,0.115937,0.228045,0
102993,3,6703,938.1557,115.4307,106.5601,16.9273,21.212,6.4185,-6.6767,442.134,43.1028,40.14,9.6932,18.2147,2.7762,-2.8365,17.0028,1.7799,1.3146,1.1057,142.617,0.12904,-0.13086,0.28561,0.166072,0.592047,-0.140524,0.449789,0.359578,0.451691,0.154441,1.314955,0.257296,0.607578,-0.423619,0.206799,0.31187,0.178142,0.359256,0.25072,0.228064,0.089585,0.274972,0
102995,1,99305,844.9189,86.1861,84.1382,12.689,37.6726,5.2758,-5.252,430.3871,26.4134,25.9375,6.7976,10.3142,2.379,-2.3747,15.7145,1.4219,1.2692,0.65133,52.598,0.11225,-0.11253,0.296242,0.158753,0.559093,-0.107717,0.452402,0.298687,0.453162,0.131503,1.329545,0.247159,0.587542,-0.364625,0.242422,0.268655,0.227083,0.296351,0.272021,0.206702,0.133286,0.243372,0
102995,2,36948,865.3507,100.4768,103.0307,14.7352,31.3917,5.0416,-4.9576,431.4143,22,20.6257,7.5607,5.5328,2.5418,-2.5273,16.0361,1.5313,1.2422,0.83407,50.065,0.11218,-0.1121,0.342162,0.103179,0.524682,-0.079882,0.445062,0.216368,0.445156,0.091639,1.403119,0.158017,0.537884,-0.251941,0.299518,0.185491,0.285597,0.209446,0.323132,0.1386,0.227047,0.165681,0
103083,1,96803,874.5119,52.5104,49.7179,14.4264,28.3464,5.1904,-5.14,479.2951,20.3259,18.5601,8.0619,8.4633,2.8767,-2.8755,14.5983,0.65664,0.38877,0.5125,119.5099,0.10001,-0.099805,0.223799,0.292176,0.729931,-0.218564,0.514641,0.531721,0.513639,0.25341,1.203217,0.471207,0.770138,-0.696589,0.111114,0.512832,0.075778,0.574083,0.173587,0.38728,-0.092826,0.461112,0
103083,2,95670,871.7168,51.9738,49.2521,14.2598,28.2796,5.2295,-5.1755,469.1272,19.9351,18.1023,8.4814,7.1348,3.0453,-2.9998,14.8678,0.67896,0.42711,0.51437,120.7955,0.10805,-0.10793,0.208504,0.299002,0.723266,-0.220909,0.505653,0.546873,0.504886,0.257725,1.180819,0.479667,0.765991,-0.709015,0.09519,0.522009,0.060138,0.583046,0.157952,0.395268,-0.113163,0.46998,0
103083,3,93676,873.3125,55.117,52.8937,14.6415,27.4147,5.3055,-5.2718,474.8256,19.2286,17.4851,7.7023,6.8763,3.0506,-3.0081,14.7137,0.71198,0.45839,0.51328,87.3029,0.1007,-0.10029,0.245113,0.263058,0.703185,-0.198817,0.506895,0.48295,0.506272,0.229467,1.238198,0.423518,0.738445,-0.630561,0.141893,0.464216,0.109118,0.520796,0.199139,0.34967,-0.041962,0.416788,0
103174,1,100984,800.5249,94.5905,90.5649,13.0098,31.5083,4.7028,-4.6655,449.7617,27.295,23.9729,5.2453,6.513,2.3996,-2.404,14.2032,1.062,0.88279,0.54457,74.0352,0.092021,-0.091945,0.256559,0.241226,0.620203,-0.134673,0.499575,0.469602,0.493113,0.189811,1.272593,0.369467,0.691885,-0.537259,0.182779,0.396696,0.163677,0.43234,0.2228,0.310087,0.020504,0.360304,0
103178,1,103044,838.8206,100.8103,96.2511,11.0498,34.9657,4.5677,-4.5067,393.6628,16.0992,15.0162,5.6163,5.3527,2.4004,-2.3831,17.0181,1.6807,1.4452,0.6902,75.8792,0.10727,-0.10679,0.309995,0.099736,0.468158,-0.061607,0.408486,0.207033,0.408134,0.079258,1.35978,0.146399,0.490132,-0.222173,0.279695,0.163904,0.271733,0.178817,0.29621,0.128055,0.212359,0.149086,0
103178,2,100241,835.9725,99.2228,94.5249,11.0587,34.1304,4.5652,-4.5058,387.839,16.5246,14.6378,6.8603,4.7768,2.8885,-2.8809,17.2036,1.5482,1.2905,0.7377,62.4944,0.12467,-0.1244,0.266609,0.145004,0.498733,-0.091433,0.410175,0.306378,0.409467,0.116408,1.296477,0.212327,0.529616,-0.325642,0.221211,0.240185,0.209002,0.262814,0.245996,0.186907,0.122916,0.218163,0
103178,3,41572,828.9796,89.6615,84.292,11.8732,27.9946,4.8753,-4.7982,428.5135,55.8026,55.4025,7.5871,15.4715,2.4039,-2.3935,15.5991,1.653,1.3944,0.82499,123.3591,0.10571,-0.1057,0.099597,0.396636,0.718837,-0.238192,0.490666,0.74815,0.488231,0.310416,1.035952,0.604656,0.810533,-0.872482,-0.015976,0.643841,-0.045451,0.699442,0.046918,0.506029,-0.281951,0.586935,0
103199,1,140375,613.5627,97.0885,102.1625,8.9853,18.6743,3.8339,-3.8146,333.3564,23.9622,23.7362,5.3979,8.9823,2.0618,-2.0383,14.7231,2.0199,1.9048,0.75773,47.0426,0.1114,-0.11171,0.258071,0.122658,0.411216,-0.046735,0.373127,0.230708,0.372213,0.077792,1.290312,0.172268,0.460958,-0.234697,0.237522,0.175007,0.233914,0.183022,0.248355,0.146836,0.164923,0.159729,0
103199,2,140265,613.837,97.2061,102.2739,9.069,18.6647,3.8666,-3.8443,338.1126,18.254,17.9715,4.5942,4.2199,2.2182,-2.2087,14.4577,1.5858,1.5182,0.55129,40.2945,0.099722,-0.099752,0.233145,0.170942,0.44722,-0.065519,0.39556,0.317307,0.392375,0.108732,1.254314,0.241377,0.516166,-0.32758,0.204341,0.244199,0.199281,0.255431,0.21954,0.204746,0.102928,0.222986,0
103199,3,140371,613.5785,97.1098,102.1841,9.0068,18.654,3.8557,-3.8428,354.2916,26.645,26.1248,6.2865,12.0895,2.1429,-2.1317,13.8681,2.0155,1.9507,0.74473,118.5566,0.1009,-0.10122,0.285155,0.112638,0.431542,-0.04637,0.392201,0.209146,0.391271,0.074038,1.3267,0.161255,0.473834,-0.219876,0.264755,0.163503,0.261023,0.171656,0.275572,0.135981,0.19631,0.149816,0
103211,1,83623,928.7246,92.6803,90.8245,17.187,39.9728,5.9181,-5.9434,449.415,19.4766,18.4389,5.6339,6.2969,2.3851,-2.443,16.511,1.2353,0.94535,0.75488,44.8621,0.11338,-0.1132,0.292225,0.16925,0.601883,-0.140457,0.461389,0.349558,0.461536,0.155495,1.321984,0.26456,0.618311,-0.426067,0.215253,0.313623,0.18816,0.359027,0.258135,0.230784,0.095688,0.277799,0
103211,2,36328,931.012,99.013,105.2934,17.8091,31.3172,5.7385,-5.762,435.5241,15.3203,14.4474,5.9756,3.351,2.4467,-2.4774,17.0774,1.3871,0.98011,0.91635,61.1582,0.11518,-0.11548,0.364797,0.075986,0.512045,-0.070771,0.440803,0.168548,0.441098,0.074338,1.435717,0.118437,0.515966,-0.203454,0.323543,0.149701,0.307283,0.175914,0.346635,0.107029,0.269529,0.130211,0
103211,3,90888,929.3039,93.4771,91.726,17.1839,39.7238,5.9565,-5.9953,413.9187,20.032,19.1541,6.7501,8.0219,2.3747,-2.4031,17.9587,1.5671,1.2258,0.92939,135.049,0.13,-0.12988,0.305505,0.116661,0.521378,-0.099042,0.421993,0.264422,0.422311,0.10841,1.349521,0.175959,0.531507,-0.296781,0.250762,0.218444,0.231023,0.251266,0.28132,0.159909,0.168205,0.192923,0
103227,1,107043,800.9672,52.7195,49.881,9.7188,12.4919,3.7494,-3.6859,424.8314,22.5012,21.2301,5.2022,5.8931,2.5179,-2.4249,15.0831,0.62753,0.48463,0.36215,42.2928,0.085354,-0.08562,0.134816,0.362058,0.68376,-0.206539,0.493348,0.674358,0.4864,0.274998,1.092793,0.54546,0.773756,-0.776377,0.038165,0.57315,0.015011,0.617475,0.090686,0.455858,-0.201442,0.524996,0
103227,2,99831,798.9493,64.3976,64.6805,9.8401,12.8021,3.9433,-3.8519,462.8309,21.3235,19.8056,5.5832,4.1923,2.778,-2.6585,13.794,0.63676,0.48758,0.3455,29.1904,0.076456,-0.076607,0.215772,0.309208,0.695169,-0.184542,0.522807,0.541018,0.517709,0.241467,1.201877,0.48441,0.768996,-0.679498,0.125295,0.501475,0.102349,0.544388,0.174364,0.394499,-0.081755,0.457147,0
103227,3,107939,796.212,56.1006,52.8639,9.1919,12.5657,3.6728,-3.5682,428.4267,23.608,22.3385,5.1585,5.308,2.4447,-2.3531,14.8638,0.6091,0.48512,0.33532,42.0979,0.084251,-0.08406,0.133839,0.369964,0.687829,-0.205477,0.499875,0.676522,0.492302,0.277324,1.090489,0.558581,0.783307,-0.78567,0.038737,0.580266,0.016533,0.623284,0.090327,0.463667,-0.204447,0.532018,0
103236,1,82282,1052.5555,121.9304,119.2227,16.5312,50.3254,6.3079,-6.2712,426.6117,17.7562,16.7881,5.3285,5.9781,2.4211,-2.4169,19.6922,1.6651,1.4269,0.77824,68.6255,0.13057,-0.13031,0.291145,0.128754,0.558075,-0.136621,0.420274,0.315284,0.420634,0.133703,1.325032,0.196997,0.555009,-0.365257,0.209598,0.268703,0.172573,0.326278,0.255976,0.186391,0.118506,0.22922,0
103236,2,81356,1054.1284,121.308,118.6159,16.5678,50.1578,6.3231,-6.3064,427.2005,18.577,17.9091,5.4056,6.2447,2.4135,-2.4069,19.7081,1.7752,1.5081,0.82161,71.3024,0.13006,-0.12983,0.306996,0.114078,0.544792,-0.122412,0.421256,0.282486,0.421687,0.119086,1.349855,0.174025,0.541369,-0.325316,0.233732,0.239315,0.200085,0.29145,0.275448,0.165563,0.153093,0.203788,0
103338,1,94978,911.1077,101.7619,99.8435,14.6968,43.8293,5.6199,-5.6139,395.8647,15.5663,14.4278,5.8511,6.233,2.4805,-2.4798,18.3756,1.5353,1.3146,0.71067,54.0877,0.12905,-0.12905,0.277076,0.130376,0.508019,-0.101012,0.407147,0.292292,0.407285,0.115594,1.309308,0.19376,0.524232,-0.31778,0.223567,0.233975,0.205999,0.264269,0.253257,0.174892,0.132112,0.209001,0
103338,2,95011,910.7048,101.8436,99.96,14.7475,44.2117,5.705,-5.7103,388.4998,16.8651,16.3262,5.2918,5.905,2.367,-2.3723,18.7248,1.6384,1.4,0.74837,60.1335,0.13278,-0.13281,0.277821,0.121529,0.492911,-0.093995,0.398977,0.277421,0.399188,0.107694,1.311696,0.179287,0.508188,-0.296174,0.227959,0.218076,0.211584,0.246311,0.255616,0.163026,0.142749,0.194774,0
103338,3,35553,884.8506,72.3384,69.9165,14.5709,28.2391,5.57,-5.6291,456.5685,38.4305,37.5981,7.6685,71.9696,2.2343,-2.2317,15.6127,1.8153,1.4875,0.99325,243.5137,0.11581,-0.11628,0.456656,-0.000098,0.456089,0.000422,0.45541,0.008135,0.456533,-0.000281,1.582947,-0.003538,0.456285,0.000685,0.456931,-0.000501,0.457074,-0.000715,0.456768,-0.00025,0.457046,-0.000383,0
103415,1,84700,1021.5111,103.2855,100.5034,11.9088,38.9425,5.028,-4.9898,387.4612,16.6786,15.9422,4.894,6.1257,2.2271,-2.1992,21.0835,1.8394,1.6145,0.76533,81.5992,0.12475,-0.12465,0.301149,0.084512,0.470941,-0.084435,0.385703,0.222926,0.386079,0.08495,1.347033,0.123772,0.471281,-0.231607,0.252238,0.17041,0.231408,0.203376,0.279955,0.120167,0.192198,0.147111,0
103415,2,84681,1021.6727,103.259,100.481,11.9218,38.8089,5.0356,-4.9859,384.6733,14.1722,13.5158,4.1163,4.7063,2.1697,-2.1692,21.2119,1.5827,1.3952,0.65299,71.3404,0.11548,-0.11494,0.265197,0.116966,0.498771,-0.115423,0.38249,0.304904,0.382752,0.116895,1.293858,0.171738,0.500037,-0.318819,0.19851,0.234581,0.170448,0.279164,0.23625,0.165882,0.115409,0.20285,0
103415,3,64299,1019.6728,98.6117,95.7044,11.7985,31.198,4.9524,-4.9371,432.5103,40.1287,40.219,7.3473,8.4183,2.4181,-2.4123,19.0708,2.861,2.6436,0.9029,86.7733,0.1236,-0.12361,0.57853,-0.143216,0.296191,0.137752,0.432729,-0.313976,0.434625,-0.141169,1.771728,-0.224952,0.293058,0.384828,0.65702,-0.283157,0.689096,-0.334588,0.61267,-0.201616,0.758873,-0.246035,0
103416,1,6489,751.9384,207.9995,167.1091,18.2412,28.3362,5.6071,-5.8094,378.7843,73.2153,63.3167,7.8677,40.8113,1.9389,-2.0108,15.5622,1.9599,1.5112,0.86126,47.7132,0.1021,-0.10394,0.118546,0.341904,0.543992,-0.113968,0.452476,0.636047,0.443762,0.206359,1.099762,0.478971,0.685307,-0.643669,0.070022,0.482849,0.061615,0.50479,0.095453,0.407502,-0.122174,0.4342,0
103416,2,105182,805.6339,89.0194,89.0402,14.8739,20.6199,5.1141,-5.0719,375.0935,15.5559,14.719,5.2902,3.6779,2.26,-2.243,17.1532,1.43,1.2982,0.60128,42.5666,0.12387,-0.12363,0.263489,0.138514,0.487723,-0.089751,0.400446,0.299032,0.400019,0.112498,1.292545,0.202004,0.51572,-0.313632,0.218767,0.231225,0.20649,0.253712,0.243242,0.179208,0.124356,0.209856,0
103422,1,3148,964.7429,65.4925,63.2358,12.6276,21.2703,4.7403,-4.9367,453.549,12.9115,11.1501,5.9799,4.3783,2.4222,-2.4248,17.0041,0.83871,0.47503,0.59778,41.4211,0.097012,-0.098125,0.411906,0.043561,0.482804,-0.02779,0.455072,0.078408,0.455247,0.035338,1.508663,0.068366,0.49146,-0.098357,0.398345,0.07249,0.394987,0.079058,0.405717,0.056341,0.368385,0.066016,0
103422,2,5633,1063.9519,261.4591,297.2729,24.6683,32.0057,9.3844,-9.3904,503.8918,46.6311,48.7159,8.7916,6.2174,2.9873,-3.0091,16.7032,2.4495,1.5389,1.8779,64.0114,0.11695,-0.11719,0.396845,0.100179,0.629545,-0.130199,0.496472,0.216939,0.49804,0.116678,1.473109,0.172088,0.617364,-0.324158,0.311246,0.237913,0.264264,0.308083,0.360386,0.155581,0.242756,0.193562,0
103422,3,34277,841.2708,150.8659,145.0503,12.6924,40.7574,5.2472,-5.2744,451.0104,65.5293,63.4598,8.3909,9.068,3.0701,-3.0914,14.8736,1.1461,0.92588,0.66854,87.2188,0.10812,-0.10823,0.105277,0.410939,0.764616,-0.25534,0.513796,0.748468,0.512855,0.327741,1.034546,0.640312,0.851966,-0.920079,-0.019712,0.678974,-0.053249,0.742851,0.04852,0.529153,-0.297154,0.615991,0
103423,1,107630,786.279,77.8757,77.3671,10.2903,29.2155,4.1063,-4.0423,422.7039,32.449,32.5082,8.3303,12.2907,2.6048,-2.5803,14.9154,1.3963,1.1955,0.69986,38.9823,0.10196,-0.10203,0.289481,0.169436,0.559694,-0.10674,0.456206,0.322841,0.455871,0.135394,1.323861,0.258223,0.595481,-0.378231,0.237335,0.278897,0.223486,0.30451,0.265844,0.217602,0.122567,0.253889,0
103423,2,104658,781.8834,88.3721,83.6217,10.3181,29.8171,4.0619,-3.9824,388.5825,18.899,16.708,5.284,5.322,2.327,-2.3308,16.0561,1.263,1.1113,0.50503,21.9225,0.099336,-0.098658,0.240435,0.1894,0.513462,-0.09634,0.428511,0.393288,0.424194,0.141273,1.260782,0.274057,0.574958,-0.405984,0.189803,0.300438,0.177878,0.323511,0.216983,0.239214,0.066016,0.273636,0
103423,3,42316,773.8096,80.5102,76.8569,9.8942,21.4041,3.9343,-3.8509,407.5424,19.906,17.7832,5.7304,6.046,2.5123,-2.5275,15.1611,1.1019,0.95108,0.45929,24.6023,0.090527,-0.090103,0.252041,0.200722,0.55236,-0.111061,0.451627,0.399932,0.44735,0.153027,1.273271,0.297067,0.607883,-0.433516,0.197063,0.320144,0.183808,0.34549,0.226849,0.253874,0.063911,0.292646,0
103428,1,78255,1022.6693,79.8422,77.0152,15.7929,45.1037,6.1204,-6.0778,449.3959,11.8509,11.1498,4.0177,3.8977,2.1916,-2.1918,18.1879,1.0832,0.81597,0.67595,90.0518,0.11184,-0.11166,0.311434,0.134885,0.58313,-0.136134,0.446483,0.304602,0.446647,0.136076,1.351667,0.210994,0.583014,-0.370689,0.232439,0.272736,0.198486,0.326074,0.277255,0.192,0.13669,0.235273,0
103428,2,77691,1023.1369,79.7504,76.8949,15.7548,44.4457,6.1212,-6.0908,427.7015,38.4122,37.9432,5.9308,8.6602,2.2892,-2.2917,19.3027,2.3953,2.0934,1.0769,95.2096,0.13028,-0.13006,0.466242,-0.037665,0.399756,0.02846,0.42667,-0.077813,0.428389,-0.033296,1.593885,-0.057682,0.394988,0.090795,0.480872,-0.066822,0.48465,-0.073991,0.472856,-0.050346,0.507879,-0.060312,0
103428,3,19973,971.2609,99.5789,97.3589,16.2043,25.1866,6.843,-6.804,456.0733,22.0755,20.3166,6.4164,4.0853,2.5947,-2.5863,17.0081,1.2069,0.92024,0.71309,57.8928,0.11372,-0.114,0.329961,0.129868,0.573429,-0.113116,0.459665,0.274561,0.460142,0.123134,1.379844,0.204312,0.584399,-0.337711,0.264927,0.248581,0.240883,0.288106,0.301114,0.180283,0.172896,0.218047,0
