859.16,86.581,86.745,10.748,27.196,4.5383,-4.5002,425.92,20.321,19.037,7.6638,6.1978,2.74,-2.7418,16.158,1.6466,1.5228,0.62493,39.027,0.11139,-0.11168,0.39698,0.033685,0.45634,-0.0259,0.43035,0.073374,0.43057,0.029719,1.4879,0.050478,0.4606,-0.0816,0.3834,0.06007,0.37902,0.067637,0.39093,0.045031,0.35975,0.0538,0
882.65,139.62,166.17,13.298,30.862,5.3571,-5.2721,437.69,38.092,41.088,7.5814,6.2638,2.5472,-2.539,16.168,2.1935,1.8987,0.92769,81.921,0.11329,-0.11296,0.36592,0.081379,0.50592,-0.059194,0.4448,0.14501,0.44727,0.07144,1.4313,0.13488,0.52001,-0.19749,0.33313,0.14544,0.32441,0.16125,0.35067,0.10977,0.27552,0.13048,0
939.17,50.156,48.001,11.263,22.055,4.1074,-4.3358,401.95,8.1466,6.0375,5.2814,4.0123,2.3208,-2.3413,18.687,0.8159,0.51201,0.59061,38.656,0.10459,-0.11042,0.25914,0.1509,0.54429,-0.13452,0.40992,0.3558,0.40991,0.1426,1.2815,0.22535,0.5528,-0.3884,0.18546,0.28579,0.15774,0.33102,0.22692,0.2077,0.078355,0.25179,0
819.48,73.493,72.4,11.769,24.351,5.2483,-5.2446,405.52,16.439,15.775,6.2448,3.5256,2.5284,-2.5198,16.186,1.5086,1.2098,0.80776,27.151,0.11491,-0.11571,0.37082,0.042339,0.44039,-0.028396,0.41257,0.089193,0.41256,0.034838,1.4491,0.0625,0.44819,-0.096637,0.35672,0.0712,0.35277,0.078345,0.36447,0.054947,0.32768,0.06461,0
819.58,73.461,72.372,11.869,25.013,5.2518,-5.2649,400.31,11.44,10.652,4.0386,3.4736,2.1902,-2.1771,16.359,1.128,0.87457,0.66245,20.069,0.10667,-0.10696,0.2849,0.1408,0.51523,-0.093581,0.42422,0.28903,0.42364,0.11542,1.3202,0.21004,0.54188,-0.32063,0.23838,0.23628,0.22538,0.25982,0.26392,0.18255,0.142,0.2144,0
824.15,72.643,71.457,11.811,23.569,5.2856,-5.2967,436.63,50.86,51.849,8.1997,14.702,2.5844,-2.5702,15.209,1.4487,1.1224,0.84809,50.166,0.1096,-0.10992,0.14196,0.35752,0.72351,-0.23493,0.49375,0.65876,0.49394,0.2916,1.0879,0.56007,0.79315,-0.81114,0.025277,0.59784,-0.007042,0.65654,0.089262,0.46277,-0.21889,0.54273,0
823.49,71.87,71.019,13.112,23.943,4.3069,-4.3106,439.41,37.85,37.772,7.4263,9.356,2.534,-2.5242,15.072,1.55,1.3097,0.74352,43.284,0.10045,-0.10025,0.33036,0.13242,0.55319,-0.093089,0.46169,0.26889,0.46144,0.11156,1.3876,0.20081,0.57498,-0.3082,0.28333,0.227,0.26948,0.25162,0.30927,0.17351,0.19169,0.20518,0
590.38,202.81,248.45,22.549,23.421,6.5874,-6.3544,360.6,36.391,37.065,7.9416,17.383,1.9307,-1.8897,12.844,2.9618,1.8425,1.942,117.11,0.11806,-0.11502,0.27864,0.14295,0.45014,-0.048999,0.41038,0.23109,0.41039,0.085804,1.3159,0.20796,0.5109,-0.2645,0.2586,0.19797,0.25541,0.20566,0.26913,0.16854,0.17741,0.17989,0
898.17,146.25,158.31,22.491,35.538,7.5149,-7.4977,422.59,25.51,23.128,9.2909,8.5762,2.9314,-2.9977,16.989,2.4308,1.5636,1.7327,50.768,0.14303,-0.14193,0.38001,0.047581,0.47888,-0.049858,0.42728,0.11096,0.42836,0.049615,1.4596,0.074633,0.47817,-0.13543,0.35011,0.099619,0.33715,0.1202,0.367,0.069187,0.31596,0.08516,0
961.87,155.83,145.56,17.909,53.109,6.6891,-6.6406,417.87,26.265,24.319,7.0922,9.0859,2.7038,-2.6962,18.344,2.3089,1.9273,0.96651,95.085,0.14408,-0.14406,0.29678,0.12581,0.5217,-0.097308,0.42301,0.28128,0.42361,0.11285,1.3376,0.18876,0.53826,-0.31177,0.24318,0.22967,0.2253,0.26088,0.27277,0.17056,0.15481,0.20386,0
918.13,88.25,88.767,17.516,43.414,5.902,-5.7897,403.64,11.021,9.5016,5.8573,3.7534,2.4825,-2.4385,18.175,1.3968,1.1544,0.79739,88.13,0.13377,-0.13236,0.31139,0.10073,0.50153,-0.089021,0.41222,0.23373,0.41236,0.09525,1.3586,0.15148,0.50809,-0.26021,0.26198,0.19149,0.24343,0.22196,0.28969,0.13906,0.19053,0.16839,0
774.63,60.32,60.348,12.262,20.893,5.2327,-5.1651,392.67,37.527,37.613,6.2666,10.64,2.3373,-2.3058,15.871,1.4375,1.2088,0.69171,49.276,0.11825,-0.11855,0.15785,0.30332,0.62134,-0.17619,0.45721,0.60647,0.45264,0.23218,1.1365,0.44631,0.69451,-0.65375,0.075242,0.48244,0.055192,0.52053,0.12021,0.38276,-0.12637,0.44186,0
794.61,70.946,70.362,11.666,23.56,4.9925,-4.9638,399.69,12.586,11.751,4.6048,3.9687,2.2556,-2.2567,15.884,1.0477,0.8857,0.53603,20.122,0.10248,-0.10231,0.27283,0.15969,0.52583,-0.099518,0.43018,0.31685,0.42932,0.12682,1.302,0.23849,0.56023,-0.35453,0.22452,0.26143,0.21187,0.28488,0.25092,0.2045,0.11661,0.23828,0
804.08,96.946,108.2,13.083,24.856,5.2094,-5.2038,428.85,26.313,25.657,7.1846,7.4145,2.7802,-2.762,14.993,1.3905,1.1832,0.68684,54.869,0.11438,-0.11488,0.31685,0.1393,0.55093,-0.097202,0.45441,0.26783,0.45536,0.1188,1.3602,0.21871,0.57722,-0.33043,0.26445,0.24348,0.24907,0.27083,0.29291,0.18507,0.1678,0.21866,0
983.4,117.81,117.16,18.225,46.237,7.429,-7.3927,418.21,21.168,21.042,3.6185,5.8,2.0743,-2.0912,18.757,1.4426,1.259,0.67794,77.542,0.14,-0.13967,0.24952,0.17153,0.58747,-0.16436,0.42158,0.40347,0.42212,0.1695,1.2624,0.26152,0.59252,-0.46318,0.15444,0.34082,0.11554,0.40326,0.20802,0.24232,0.032566,0.29553,0
977.91,114.5,114.78,18.131,44.007,7.2516,-7.2103,410.21,21.84,21.6,5.1691,6.1374,2.3428,-2.3474,19.033,1.5437,1.3167,0.76327,105.03,0.15162,-0.15119,0.25858,0.15504,0.56319,-0.14786,0.41395,0.37009,0.41453,0.15278,1.278,0.23472,0.56809,-0.4174,0.17331,0.30713,0.13865,0.36283,0.22135,0.21868,0.063131,0.2666,0
887.82,128.86,142.79,12.505,18.384,3.7613,-3.7008,413.04,35.648,38.298,6.6138,3.487,2.2876,-2.2825,17.134,1.1592,0.97312,0.56775,22.073,0.078477,-0.078306,0.20999,0.22868,0.64409,-0.20209,0.43823,0.4929,0.44091,0.21982,1.1928,0.35993,0.66368,-0.60509,0.091303,0.44535,0.046415,0.51951,0.15725,0.32081,-0.070998,0.38824,1
770.33,118.34,109.45,9.802,27.29,3.9034,-3.871,427.92,63.094,62.711,7.3494,9.7262,2.4825,-2.4709,14.458,1.5647,1.3116,0.75392,31.134,0.089475,-0.089833,0.13949,0.37447,0.67585,-0.18592,0.50996,0.68125,0.5016,0.26925,1.106,0.55973,0.7906,-0.77813,0.051924,0.57648,0.032474,0.61592,0.09891,0.46555,-0.18745,0.52655,0
770.02,118.31,109.4,9.9436,27.321,3.9091,-3.8704,400.52,19.732,18.15,5.5128,3.5587,2.3919,-2.4064,15.315,1.8303,1.6469,0.56356,31.887,0.090736,-0.090319,0.29067,0.14268,0.495,-0.070816,0.43023,0.26579,0.42855,0.10226,1.331,0.21023,0.53809,-0.29506,0.25805,0.21851,0.25097,0.233,0.27557,0.17687,0.16679,0.20003,0
770.01,118.32,109.41,9.7668,27.203,3.8843,-3.8529,489.42,103.07,97.454,8.984,20.332,2.9442,-2.9304,12.805,1.4795,1.2688,0.74655,101.42,0.081378,-0.081703,-0.07751,0.73637,0.95381,-0.34805,0.65576,1.1546,0.63093,0.51616,0.73786,1.1717,1.1897,-1.502,-0.23677,1.1138,-0.27029,1.1837,-0.15155,0.90734,-0.70088,1.0187,0
898.95,101.03,102.6,16.666,38.139,6.1706,-6.1507,407.5,37.523,36.415,6.1549,7.5172,2.2817,-2.2834,17.682,1.5521,1.091,1.0117,115.62,0.13739,-0.13753,0.16108,0.27414,0.64702,-0.21311,0.43457,0.61509,0.4349,0.24551,1.1355,0.41007,0.68445,-0.67771,0.043211,0.49902,0.004313,0.56549,0.10798,0.37136,-0.14912,0.44363,0
821.01,81.091,89.186,14.247,31.127,5.2024,-5.0044,357.92,19.975,20.645,6.3643,4.4186,2.3485,-2.2561,18.358,1.5186,1.0632,1.0256,76.372,0.13887,-0.13859,0.2779,0.097861,0.43363,-0.061557,0.37289,0.20751,0.37382,0.077899,1.3133,0.14348,0.45404,-0.21731,0.24829,0.1602,0.24055,0.17455,0.2645,0.12528,0.18202,0.14614,0
873.8,84.429,85.244,12.396,26.29,4.4616,-4.4413,477.93,22.177,21.395,6.601,7.252,2.849,-2.798,14.607,0.97339,0.72013,0.62027,86.194,0.089759,-0.089762,0.28042,0.22604,0.67793,-0.1734,0.50559,0.41283,0.50559,0.19922,1.2927,0.36677,0.70721,-0.54768,0.18904,0.40323,0.15943,0.45426,0.2397,0.30227,0.03069,0.36085,0
1019.8,453.19,660.25,20.053,23.002,7.2179,-7.1922,524.18,120.85,159.35,9.5467,6.0904,3.5475,-3.4718,15.136,2.6249,2.4057,1.161,57.188,0.10482,-0.1046,0.30457,0.2167,0.91742,-0.36622,0.52392,0.45421,0.53604,0.31067,1.2373,0.46005,0.88193,-0.92922,0.012886,0.66989,-0.16194,0.93621,0.18,0.39691,-0.1196,0.49417,0
874.7,73.781,69.136,13.548,20.029,4.9723,-5.0019,408.61,27.48,25.451,7.2434,6.1364,2.4079,-2.4153,17.149,1.2795,0.88825,0.81248,81.303,0.12163,-0.12226,0.2062,0.23112,0.58748,-0.15573,0.4354,0.48615,0.4345,0.19106,1.2048,0.34309,0.63003,-0.53045,0.12791,0.39091,0.10562,0.43111,0.1709,0.30091,-0.030713,0.35399,0
910.51,58.252,57.06,14.022,17.506,4.9415,-4.9568,389.06,19.166,18.065,6.1474,5.2162,2.302,-2.3072,18.736,1.0427,0.67084,0.76819,62.146,0.11778,-0.11809,0.24563,0.15749,0.52998,-0.12807,0.40217,0.36308,0.40256,0.14268,1.2629,0.23384,0.54628,-0.39052,0.17688,0.28742,0.15343,0.32688,0.21516,0.21298,0.065788,0.25587,0
860.04,116.55,108.55,15.072,27.043,5.7866,-5.7324,388.53,18.271,17.146,5.0762,5.4975,2.1806,-2.1861,17.645,1.7685,1.4313,0.84664,57.191,0.11628,-0.11596,0.2732,0.13398,0.48731,-0.083549,0.40577,0.2814,0.40545,0.10687,1.3063,0.19611,0.51586,-0.2994,0.23228,0.22087,0.22138,0.24135,0.25462,0.17227,0.14172,0.20072,0
1021.5,119.73,115.59,17.615,39.214,6.1754,-6.1661,474.74,15.618,14.309,5.961,4.595,2.5313,-2.5245,17.184,1.6658,1.4433,0.73025,65.518,0.11591,-0.11621,0.37363,0.098988,0.57162,-0.097689,0.473,0.21085,0.47327,0.099015,1.446,0.15841,0.57269,-0.27025,0.31709,0.19885,0.29323,0.23684,0.34908,0.14053,0.24677,0.17182,0
906.53,72.556,70.679,16.38,37.937,5.6656,-5.6775,453.42,14.287,12.783,6.6888,4.5252,2.6086,-2.6033,15.993,1.1582,0.79146,0.79742,38.624,0.11156,-0.11165,0.37607,0.085338,0.52984,-0.068952,0.46112,0.17222,0.46116,0.076947,1.4529,0.13345,0.53866,-0.2106,0.33945,0.155,0.32701,0.17604,0.35987,0.11508,0.27931,0.13816,0
1025.9,121.48,117.37,17.836,35.839,6.1341,-6.1257,477.08,34.533,32.128,7.5008,4.6793,2.6483,-2.6589,17.198,1.5337,1.2585,0.77156,92.072,0.11649,-0.11637,0.2918,0.18064,0.65767,-0.18282,0.47216,0.39978,0.47363,0.18293,1.3187,0.28621,0.65731,-0.49931,0.1851,0.36736,0.13881,0.44046,0.24562,0.25801,0.056918,0.31611,0
1022.2,89.955,86.086,18.044,33.665,5.5346,-5.4504,451.73,15.19,14.238,5.2365,5.1187,2.4101,-2.4096,18.081,1.1696,0.9296,0.64574,71.823,0.11112,-0.11082,0.29947,0.14891,0.59312,-0.14356,0.44871,0.32745,0.44896,0.14743,1.3321,0.23384,0.59699,-0.40241,0.21639,0.29611,0.18229,0.35053,0.26325,0.21038,0.1106,0.25678,0
1021.7,89.977,86.103,18.052,33.32,5.5027,-5.4584,450.41,14.554,13.855,4.5929,4.4167,2.2507,-2.2511,18.124,1.1686,0.95275,0.626,71.148,0.10887,-0.10865,0.30078,0.14642,0.59028,-0.14194,0.44753,0.32375,0.44776,0.14535,1.3345,0.22963,0.5937,-0.39673,0.21848,0.29192,0.18449,0.34606,0.26492,0.20713,0.11448,0.25293,0
1038.5,151.6,193.51,19.992,23.412,7.1468,-7.1751,477.73,39.255,42.581,8.9868,5.8284,2.9399,-2.8858,17.391,1.708,1.0921,1.1128,90.77,0.12989,-0.13087,0.43089,0.045038,0.52613,-0.049925,0.47502,0.07926,0.47598,0.050323,1.5256,0.084748,0.52797,-0.1414,0.39476,0.10339,0.37964,0.1266,0.41455,0.069627,0.36338,0.085466,0
1038.1,109.04,105.43,15.832,43.89,5.8859,-5.8578,417.59,16.33,15.905,4.3518,5.1411,2.2439,-2.2453,19.853,1.5454,1.3067,0.71705,69.225,0.11937,-0.11953,0.28453,0.12818,0.54119,-0.12702,0.41315,0.30644,0.41343,0.12859,1.3158,0.19523,0.54251,-0.35088,0.21066,0.25817,0.17957,0.30757,0.25243,0.18226,0.11955,0.22296,0
1027,103.16,99.471,15.744,41.659,5.8613,-5.8175,432.57,22.357,22.557,5.5586,6.2341,2.4697,-2.4461,18.991,1.6039,1.302,0.78043,54.773,0.12319,-0.12354,0.30874,0.12058,0.54985,-0.11935,0.42933,0.28229,0.4299,0.12079,1.3516,0.18501,0.55111,-0.3295,0.23948,0.24244,0.2103,0.28874,0.27866,0.17126,0.15382,0.20949,0
1038.3,105.38,101.7,15.963,45.553,5.8048,-5.7823,454.25,26.084,24.619,7.3412,8.1178,2.8867,-2.8751,18.309,1.8257,1.6617,0.78426,93.495,0.12337,-0.12334,0.36465,0.086294,0.54313,-0.091438,0.45057,0.19564,0.4513,0.08942,1.4338,0.13652,0.54103,-0.24392,0.31035,0.17946,0.2858,0.21756,0.34126,0.12464,0.24924,0.15333,0
950.91,94.63,73.437,17.408,20.132,7.1477,-7.1716,407.33,27.124,22.767,6.001,2.6841,2.5585,-2.5267,18.649,1.4338,1.033,0.77319,41.772,0.14797,-0.1487,0.27339,0.14088,0.47843,-0.066607,0.41429,0.35189,0.41324,0.10521,1.3227,0.19002,0.52774,-0.31036,0.2324,0.23072,0.22214,0.25104,0.25384,0.18169,0.14208,0.20623,0
721.2,296.49,275.41,19.738,49.116,5.3955,-5.6213,347.5,79.026,80.294,9.3654,53.244,2.1479,-2.2031,16.009,4.0068,3.6782,1.6865,264,0.11233,-0.11445,0.1904,0.21673,0.50308,-0.095195,0.4037,0.43158,0.40787,0.14872,1.1966,0.30816,0.57077,-0.44291,0.14874,0.32987,0.13961,0.35245,0.17104,0.26831,0.015906,0.29749,0
947.37,69.528,67.78,18.017,22.922,6.3103,-6.2823,461.76,11.767,10.769,4.2311,3.2953,2.2435,-2.2639,16.401,0.94396,0.66707,0.63337,25.807,0.11263,-0.11236,0.33706,0.13163,0.58538,-0.11667,0.46861,0.26884,0.46873,0.12448,1.3887,0.20932,0.59368,-0.33962,0.27246,0.24991,0.24828,0.28948,0.3087,0.18156,0.17904,0.21996,0
952.13,69.609,68.12,17.852,23.829,6.2363,-6.1931,418.06,20.326,20.52,4.4156,4.2925,2.2543,-2.2744,18.229,1.1669,0.84214,0.7539,71.064,0.12175,-0.12132,0.26685,0.15882,0.57058,-0.14465,0.42532,0.35966,0.42583,0.15227,1.2881,0.24285,0.57863,-0.41533,0.18581,0.30562,0.1545,0.35638,0.23138,0.22054,0.073046,0.26784,0
942.54,123.17,102.36,20.419,25.32,7.2681,-7.2978,405.61,32.57,30.318,6.4611,6.4945,2.3669,-2.3742,18.561,1.9891,1.4628,0.98192,66.752,0.14161,-0.14153,0.26378,0.15008,0.50188,-0.089345,0.41364,0.36063,0.41344,0.12228,1.3014,0.21126,0.54183,-0.34856,0.21109,0.25788,0.19627,0.2852,0.23924,0.19803,0.10994,0.23062,0
873.02,85.967,82.992,17.461,36.936,7.2129,-7.1329,433.15,14.504,13.639,4.6081,4.6105,2.3454,-2.3714,16.099,1.1994,0.99968,0.61785,31.269,0.1259,-0.12489,0.30694,0.14458,0.55293,-0.10366,0.45064,0.28652,0.45043,0.12333,1.348,0.22256,0.57591,-0.3407,0.2535,0.25095,0.23731,0.27952,0.28296,0.19072,0.15317,0.22601,0
647.43,104.1,104.13,17.61,202.4,5.6503,-5.6491,365.49,28.55,27.575,7.7411,119.06,1.7124,-1.7354,14.093,1.2986,0.51421,1.2169,337.33,0.094153,-0.094844,0.23596,0.19417,0.49159,-0.082722,0.42059,0.34727,0.41823,0.12766,1.2544,0.28089,0.55939,-0.37646,0.20161,0.27965,0.19542,0.29307,0.21996,0.23317,0.083496,0.25721,0
1033.3,114.2,128.02,15.201,29.132,6.4724,-6.3798,524.29,17.61,16.224,5.954,5.6733,2.7346,-2.7466,15.746,1.4086,0.82189,0.68571,25.937,0.1031,-0.10202,0.37871,0.14147,0.67875,-0.15782,0.52022,0.28792,0.52051,0.15101,1.4432,0.23934,0.67262,-0.41348,0.28169,0.30407,0.23566,0.3743,0.33691,0.2081,0.18221,0.25679,0
967.02,80.292,77.853,10.551,18.006,3.9845,-4.014,433.59,13.281,11.448,6.6668,3.5973,2.6324,-2.6243,17.835,1.2835,1.1047,0.56447,34.917,0.10504,-0.10556,0.34328,0.093361,0.51797,-0.081087,0.43663,0.20439,0.43678,0.08747,1.4043,0.14335,0.52467,-0.23891,0.29869,0.17582,0.28233,0.20287,0.32367,0.12826,0.23249,0.15509,0
970.32,84.462,81.461,11.183,20.759,4.2486,-4.2849,430.39,15.414,14.138,6.4265,3.9681,2.5731,-2.5623,18.034,1.4092,1.1673,0.65651,51.768,0.10535,-0.10603,0.3479,0.084978,0.50701,-0.07385,0.43281,0.18787,0.43304,0.079677,1.4119,0.12996,0.51312,-0.21768,0.30722,0.1602,0.29226,0.18493,0.33,0.11682,0.24696,0.14125,0
977.62,92.487,89.963,11.955,33.866,4.0474,-4.0676,450.44,17.33,15.796,7.8124,4.8301,2.7822,-2.7559,17.367,1.5504,1.3209,0.74072,54.759,0.10958,-0.11011,0.3796,0.072424,0.51881,-0.066307,0.45199,0.15825,0.45227,0.069664,1.4592,0.11253,0.52219,-0.19008,0.34241,0.13987,0.32794,0.1634,0.36334,0.10076,0.29096,0.12243,0
898.19,59.89,58.378,11.067,20.381,3.6543,-3.6308,436.62,35.406,35.24,7.3914,6.6118,2.3715,-2.3741,16.528,1.3284,1.1086,0.67414,56.423,0.098466,-0.098287,0.2155,0.24616,0.65609,-0.19637,0.46035,0.51393,0.46072,0.22062,1.2074,0.37964,0.68314,-0.60433,0.11146,0.44482,0.076522,0.50409,0.1694,0.33112,-0.061745,0.39697,0
903.85,64.788,63.76,11.71,22.292,3.8272,-3.7812,409.21,10.113,8.9346,4.8653,3.4384,2.2467,-2.2607,17.657,0.98695,0.8125,0.5325,43.513,0.095547,-0.095152,0.29253,0.12908,0.52517,-0.10436,0.42134,0.28601,0.42124,0.11651,1.3303,0.19407,0.53863,-0.31901,0.23686,0.2348,0.21789,0.26685,0.26789,0.17422,0.14592,0.20916,0
1059.4,83.352,76.449,23.007,26.68,5.6749,-5.6456,462.49,13.757,12.156,6.2163,4.0957,2.4308,-2.4247,18.327,1.361,1.0144,0.78452,83.093,0.11561,-0.11531,0.38264,0.075371,0.53389,-0.07524,0.45802,0.16814,0.45831,0.075858,1.4627,0.1184,0.53444,-0.20697,0.33869,0.15229,0.31997,0.18185,0.36357,0.10731,0.2852,0.13137,0
1058.1,84.631,77.764,22.998,26.471,5.6618,-5.6299,499.39,35.044,34.873,8.7295,9.3878,2.7697,-2.7544,17.035,1.8142,1.4857,0.90279,150.76,0.11745,-0.11743,0.53385,-0.032564,0.47329,0.027455,0.49965,-0.054227,0.50102,-0.030392,1.7083,-0.056329,0.4704,0.083264,0.54917,-0.061284,0.55446,-0.070324,0.54066,-0.044822,0.57235,-0.054091,0
1075.4,77.138,70.265,23.7,25.311,5.9486,-5.9137,461.06,12.496,10.845,5.7423,3.37,2.4587,-2.4578,18.647,1.0615,0.74216,0.70984,66.682,0.11924,-0.11909,0.3215,0.12976,0.58955,-0.13761,0.45131,0.29679,0.45155,0.1344,1.3662,0.20424,0.58641,-0.36661,0.2397,0.26972,0.20255,0.32716,0.28628,0.18734,0.14796,0.23044,0
881.75,123.08,119.49,16.177,45.993,6.2086,-6.1321,440.98,21.311,20.412,5.3833,6.9048,2.3406,-2.36,15.948,1.7144,1.4898,0.74528,53.667,0.1146,-0.11411,0.31664,0.14102,0.55578,-0.099338,0.45715,0.27556,0.45716,0.11987,1.3622,0.21822,0.5796,-0.33249,0.26485,0.24503,0.24917,0.27305,0.29332,0.18627,0.16728,0.22027,0
892.54,149.63,168.11,17.949,38.283,6.8303,-6.7666,432.45,53.33,53.526,7.5696,12.034,2.6657,-2.6653,16.509,1.6134,1.1858,0.94908,47.175,0.1248,-0.12453,0.17098,0.29308,0.72132,-0.25264,0.4656,0.65563,0.46737,0.28107,1.1358,0.45666,0.7538,-0.77785,0.018112,0.57233,-0.036215,0.66312,0.10142,0.41383,-0.19057,0.49897,0
860.9,69.643,66.769,13.685,22.053,5.1757,-5.1455,432.4,19.668,20.329,4.8924,3.3326,2.3572,-2.35,15.93,1.1253,1.0141,0.43084,28.744,0.099575,-0.099577,0.31096,0.14106,0.54669,-0.097785,0.45001,0.26738,0.45043,0.11798,1.3521,0.21971,0.57071,-0.3264,0.26181,0.24044,0.24751,0.26598,0.28889,0.1843,0.1645,0.21754,1
878.08,59.368,55.959,13.456,14.35,5.0022,-4.9756,465.94,16.4,15.233,5.394,3.9081,2.4818,-2.4804,15.065,0.6723,0.52914,0.39539,32.896,0.098352,-0.098204,0.25099,0.24482,0.66926,-0.17778,0.49442,0.45366,0.49361,0.20932,1.2524,0.38872,0.70603,-0.57678,0.16029,0.42472,0.13268,0.47317,0.21045,0.32265,-0.009857,0.38287,1
860.99,69.674,66.786,13.725,21.893,5.1719,-5.1432,479.66,18.911,18.093,4.9297,4.9468,2.351,-2.3424,14.341,0.70622,0.58844,0.37157,43.862,0.090766,-0.090676,0.25492,0.26103,0.69742,-0.18633,0.51476,0.4676,0.51349,0.22148,1.2544,0.41974,0.73866,-0.61129,0.16021,0.4502,0.13181,0.50038,0.21251,0.34305,-0.020729,0.40629,1
998.06,152.8,147.45,18.017,65.123,6.8696,-6.8865,456.23,25.074,22.765,5.6676,8.3954,2.5549,-2.594,17.423,1.9472,1.4822,1.1405,56.851,0.10342,-0.10375,0.30276,0.15362,0.59424,-0.13516,0.45713,0.34736,0.45781,0.14975,1.3395,0.23932,0.60935,-0.41207,0.21946,0.30341,0.18678,0.35671,0.26599,0.21679,0.11039,0.26343,0
945.43,132.26,130.3,17.712,43.661,6.4793,-6.4809,452.16,28.07,27.894,6.6233,6.8644,2.7453,-2.7628,16.686,1.7536,1.2657,1.1467,45.272,0.10987,-0.10973,0.28778,0.17383,0.61277,-0.14969,0.46168,0.3596,0.46247,0.16325,1.313,0.27419,0.62718,-0.4477,0.20364,0.32957,0.17253,0.38121,0.25061,0.23992,0.080609,0.28976,0
965.13,132.94,127.17,18.205,130.28,7.0316,-7.0455,474.16,25.634,24.153,8.0369,9.1845,3.0785,-3.1101,16.225,1.5823,1.1068,1.0474,130.28,0.10772,-0.10806,0.29785,0.1824,0.63324,-0.15151,0.48049,0.35764,0.4811,0.16853,1.3242,0.29278,0.65143,-0.46299,0.21338,0.34088,0.18341,0.39137,0.26032,0.25004,0.08451,0.30094,0
883.52,134.29,128.7,14.881,37.984,5.9433,-5.9361,447.25,30.518,29.044,6.8163,6.1155,2.7075,-2.7311,15.726,1.5414,1.3437,0.67399,55.173,0.1235,-0.12375,0.26315,0.20825,0.61655,-0.14614,0.4713,0.40639,0.47106,0.17658,1.2798,0.32236,0.65143,-0.49001,0.18754,0.36114,0.16476,0.40217,0.22912,0.2748,0.043532,0.32476,0
928.52,127.12,120.56,15.106,42.169,6.0566,-6.0177,416.12,14.553,12.927,6.365,4.5681,2.7222,-2.6944,17.826,2.2164,1.9402,0.88464,93.898,0.14058,-0.14108,0.35253,0.06848,0.47594,-0.054501,0.42114,0.1516,0.42128,0.061946,1.4204,0.10316,0.48394,-0.17038,0.32273,0.12546,0.31262,0.14278,0.33925,0.09292,0.27447,0.11141,0
894.84,121.61,114.58,15.191,39.806,5.7062,-5.6715,449.85,31.536,28.787,6.6058,8.234,2.595,-2.6092,15.853,1.3378,1.1099,0.65384,44.364,0.11238,-0.11207,0.24815,0.22506,0.63231,-0.1607,0.47266,0.44252,0.47254,0.19238,1.2562,0.34882,0.66868,-0.53276,0.16439,0.39255,0.13881,0.43808,0.2105,0.2978,0.008303,0.35271,0
982.6,77.913,74.084,13.924,21.729,5.7436,-5.718,460.59,26.882,25.446,5.0799,7.6381,2.309,-2.3225,17.083,1.1977,0.94209,0.69841,47.522,0.10572,-0.10542,0.26575,0.19829,0.64224,-0.17752,0.46374,0.42602,0.4644,0.18866,1.281,0.30994,0.65382,-0.51494,0.16677,0.37894,0.12919,0.44034,0.22234,0.27443,0.026026,0.33278,0
838.72,59.015,55.701,13.406,19.053,5.1434,-5.2122,459.51,13.222,10.421,7.9697,4.6219,3.0223,-3.0444,14.601,0.93086,0.65522,0.55582,64.657,0.11096,-0.11132,0.37991,0.094745,0.53184,-0.060536,0.47315,0.16852,0.47291,0.076086,1.4583,0.14896,0.55113,-0.21198,0.35045,0.15625,0.3426,0.17068,0.36659,0.12175,0.28607,0.14233,0
753.32,80.822,79.654,8.6146,27.973,3.1125,-3.042,388.84,40.772,40.025,5.7423,8.7204,2.2613,-2.233,15.591,1.7028,1.4831,0.69147,35.058,0.0876,-0.088119,0.20356,0.24593,0.55088,-0.12072,0.43968,0.44487,0.43913,0.17419,1.2015,0.365,0.62592,-0.50205,0.14958,0.37164,0.13848,0.39437,0.17854,0.30272,-0.007229,0.34163,0
807.19,59.357,60.621,9.682,15.957,3.3091,-3.2831,395.81,43.305,41.372,4.9486,5.0019,2.0331,-2.0506,16.431,1.3698,1.1463,0.72138,44.164,0.082738,-0.082736,-0.091139,0.60299,0.90298,-0.40793,0.52073,1.3006,0.50325,0.49797,0.76992,0.88792,1.0121,-1.3802,-0.29417,1.0168,-0.3517,1.1203,-0.1825,0.78356,-0.70829,0.9222,0
838.96,83.944,83.115,11.234,28.614,4.5571,-4.5218,439.31,38.106,38.229,8.005,11.072,2.493,-2.4848,15.347,1.6576,1.4364,0.77807,57.148,0.10497,-0.10532,0.29813,0.16825,0.57419,-0.11217,0.46242,0.30517,0.46421,0.13841,1.3299,0.26559,0.60601,-0.38457,0.24196,0.28341,0.22623,0.31195,0.27276,0.21864,0.12662,0.25692,0
841.41,89.323,88.986,11.673,33.662,4.7664,-4.7584,389.56,15.25,14.309,5.3401,4.3443,2.351,-2.3355,17.245,1.3046,1.1346,0.60785,34.164,0.11107,-0.11133,0.2644,0.14873,0.51305,-0.1029,0.41192,0.31877,0.41167,0.1246,1.2913,0.22006,0.53886,-0.34517,0.21217,0.25431,0.19692,0.2816,0.2409,0.19471,0.10957,0.22979,0
861.09,93.67,93.4,12.123,24.81,4.8764,-4.8591,422.96,28.796,27.809,7.7107,10.3,2.7911,-2.7837,16.26,1.0156,0.68052,0.65825,23.552,0.11626,-0.11692,0.17696,0.2856,0.66004,-0.20224,0.46098,0.57361,0.46027,0.2421,1.1509,0.43673,0.70689,-0.66949,0.073281,0.49318,0.042259,0.54823,0.13041,0.37578,-0.12449,0.44465,0
762.61,70.986,70.561,14.972,26.534,5.3572,-5.3117,409.12,15.585,14.821,4.9819,5.1201,2.477,-2.4665,14.89,0.94908,0.76729,0.55154,53.886,0.10581,-0.10545,0.25627,0.20043,0.56491,-0.11795,0.45344,0.37712,0.45165,0.15485,1.2749,0.30257,0.61281,-0.43575,0.20004,0.32156,0.18611,0.34792,0.23063,0.25413,0.066306,0.29393,0
762.59,70.982,70.552,15.026,26.49,5.3875,-5.3545,408.73,16.907,15.562,6.9973,6.0805,2.8086,-2.7855,14.913,1.0646,0.87311,0.60766,53.915,0.12781,-0.12758,0.27855,0.17072,0.54139,-0.10044,0.44616,0.32203,0.44496,0.13186,1.3088,0.2574,0.58218,-0.37105,0.2307,0.27382,0.21887,0.29622,0.25673,0.21643,0.1168,0.25031,0
762.59,70.978,70.553,14.974,26.122,5.3855,-5.3321,425.07,18.736,17.697,6.5281,6.2446,2.6767,-2.6791,14.338,0.96438,0.78623,0.55305,92.448,0.11219,-0.11182,0.2702,0.20309,0.58314,-0.11968,0.46991,0.36861,0.46819,0.157,1.2925,0.31135,0.63157,-0.44176,0.21311,0.32599,0.19895,0.35277,0.24416,0.25757,0.077563,0.29796,0
778.2,198.13,294.11,14.631,16.552,4.811,-4.9055,426.16,42.987,46.428,8.3099,12.225,2.7415,-2.7411,14.479,1.8777,1.096,1.085,63.333,0.08571,-0.086467,0.38456,0.05327,0.53325,-0.08175,0.44377,0.17354,0.44611,0.076803,1.4666,0.084749,0.52617,-0.2165,0.32204,0.15829,0.28993,0.21064,0.35741,0.096268,0.28148,0.12307,0
708.48,106.63,109.03,8.8864,30.005,3.0622,-2.994,407.38,37.582,38.271,6.5627,9.37,2.3051,-2.2903,13.854,1.065,0.82829,0.53564,75.224,0.067937,-0.067566,0.19948,0.29336,0.59501,-0.13024,0.48472,0.50222,0.47853,0.20076,1.1905,0.44232,0.69971,-0.59094,0.13809,0.43892,0.12595,0.46425,0.17037,0.36024,-0.044192,0.40092,0
858.53,90.288,88.483,16.744,48.195,6.4288,-6.3947,394.23,14.546,13.736,4.6994,5.033,2.3755,-2.3839,17.387,1.318,1.096,0.69307,45.123,0.12944,-0.12903,0.26658,0.14868,0.51947,-0.10651,0.41438,0.32137,0.41413,0.12658,1.294,0.22063,0.54288,-0.34956,0.21208,0.25746,0.19562,0.28658,0.24216,0.19585,0.10895,0.23204,0
859.84,92.688,91.427,16.781,48.401,6.3901,-6.3443,399.14,16.639,16.027,4.7103,5.254,2.2998,-2.3218,17.196,1.2725,1.0334,0.70743,41.478,0.12897,-0.1284,0.25255,0.17048,0.54353,-0.12293,0.42212,0.36453,0.42186,0.14571,1.2719,0.2545,0.57002,-0.40229,0.18933,0.2963,0.17008,0.33027,0.22423,0.22501,0.070942,0.26678,0
844.86,52.891,49.327,16.197,27.594,6.2857,-6.2108,383.24,8.9946,7.989,4.1409,3.8285,2.1934,-2.204,17.626,0.85121,0.50705,0.66525,54.419,0.13264,-0.13174,0.25752,0.14874,0.50339,-0.10128,0.40463,0.32216,0.4041,0.12308,1.2828,0.21801,0.52973,-0.34078,0.20722,0.25103,0.1929,0.27669,0.23492,0.19331,0.10498,0.22769,0
837.46,133.38,135.16,14.693,52.566,5.7463,-5.7292,409.63,21.567,20.54,6.2864,8.2055,2.5661,-2.5474,16.308,2.0932,1.8621,0.92988,51.487,0.11903,-0.11941,0.31238,0.11609,0.50865,-0.08111,0.42818,0.24249,0.42819,0.098511,1.3604,0.17458,0.52894,-0.27358,0.26995,0.20164,0.25722,0.22451,0.29324,0.15339,0.18963,0.18125,0
833.07,130.75,132.59,14.632,51.541,5.7244,-5.7208,391.73,20.409,19.96,4.8478,6.7567,2.3117,-2.3369,16.943,1.9669,1.7381,0.8977,41.902,0.11915,-0.11935,0.27537,0.13965,0.50941,-0.095951,0.41448,0.29899,0.41446,0.11757,1.3071,0.2073,0.53496,-0.32706,0.2253,0.2411,0.21048,0.26784,0.25273,0.18397,0.12899,0.21696,0
1039,122.58,117.94,20.38,86.487,6.1813,-6.255,472.17,38.685,37.143,10.659,61.538,2.7774,-2.8973,17.617,1.6797,0.89866,1.4055,640,0.12696,-0.12437,0.26835,0.19506,0.65251,-0.18703,0.4628,0.41405,0.46442,0.19252,1.2797,0.31103,0.6578,-0.52573,0.16058,0.38683,0.11654,0.45743,0.22133,0.27522,0.022011,0.33567,0
873.25,34.886,32.099,10.211,10.233,3.7785,-3.7012,430.87,8.4674,5.9451,5.7505,2.8106,2.4816,-2.4565,16.215,0.60442,0.38814,0.42316,18.71,0.09236,-0.09218,0.34966,0.092824,0.50957,-0.068792,0.44183,0.18875,0.4416,0.079967,1.4146,0.14185,0.52253,-0.21979,0.31461,0.1618,0.30376,0.18066,0.33405,0.12257,0.24992,0.14577,1
837.55,81.27,82.66,10.239,23.57,3.714,-3.7095,388.41,29.874,29.634,7.1672,18.152,2.104,-2.0812,17.318,1.8307,1.5904,0.86639,153.36,0.10535,-0.10583,0.29495,0.11157,0.47336,-0.070574,0.40249,0.21221,0.40463,0.089435,1.3328,0.17012,0.49651,-0.24907,0.26073,0.18357,0.25202,0.19986,0.2794,0.14331,0.18468,0.16751,1
841.1,112.15,112.98,10.745,27.588,3.7414,-3.7043,404.12,34.638,34.6,5.7229,14.315,2.085,-2.0721,16.679,1.9662,1.8398,0.69203,66.97,0.095184,-0.095347,0.27282,0.1561,0.53523,-0.10844,0.4268,0.32089,0.42797,0.13142,1.3007,0.23566,0.56234,-0.36472,0.21708,0.26879,0.20047,0.29857,0.24773,0.20518,0.10941,0.24217,0
709.53,49.424,50.09,8.3196,13.18,3.1309,-3.0811,369.46,11.308,9.042,6.2822,3.3846,2.8842,-2.8717,15.364,0.95982,0.76607,0.54057,26.23,0.10812,-0.10799,0.31429,0.077721,0.42808,-0.041468,0.38927,0.15298,0.38906,0.056902,1.367,0.11283,0.4491,-0.16181,0.29573,0.11954,0.29164,0.12759,0.30579,0.096416,0.24519,0.10999,0
937.6,94.739,98.299,17.085,23.661,5.9784,-6.023,428.89,18.716,17.607,6.0769,4.5533,2.5446,-2.5432,17.501,1.68,1.0526,1.2415,56.144,0.12022,-0.12035,0.47468,-0.04876,0.38162,0.0442,0.42544,-0.10999,0.42585,-0.046692,1.6058,-0.074538,0.37897,0.12743,0.4995,-0.093776,0.50906,-0.1093,0.48555,-0.067706,0.53411,-0.08219,1
904.2,59.515,56.775,12.418,16.245,5.0919,-5.0973,482.48,24.648,22.651,7.2687,6.7442,2.7737,-2.7642,15.007,0.91624,0.70232,0.55251,51.18,0.10368,-0.10363,0.30888,0.19202,0.64376,-0.14528,0.50006,0.36205,0.4997,0.16776,1.3438,0.30612,0.66949,-0.46118,0.23316,0.33954,0.20905,0.38121,0.27514,0.25555,0.098933,0.30463,1
745.89,126.58,122.43,14.088,57.55,5.2212,-5.2004,370.15,25.339,24.921,4.9288,7.8021,2.2856,-2.2924,16.029,1.8668,1.6397,0.72351,46.48,0.11724,-0.11753,0.23405,0.18247,0.49234,-0.088538,0.4114,0.35139,0.40994,0.12948,1.2512,0.26441,0.54936,-0.37499,0.19336,0.27786,0.18468,0.29578,0.21516,0.22561,0.077348,0.25432,0
745.4,126.69,122.54,14.171,57.181,5.2849,-5.2232,389.02,25.19,24.391,6.5288,8.885,2.7813,-2.7925,15.244,1.8216,1.5958,0.71378,38.803,0.12327,-0.12325,0.25384,0.18134,0.51036,-0.08786,0.43,0.33203,0.42862,0.12858,1.2764,0.26775,0.56711,-0.37248,0.21349,0.27601,0.2049,0.29376,0.23511,0.22416,0.098244,0.25263,0
879.69,116.9,114.58,13.511,43.364,5.148,-5.1153,403.05,17.554,16.886,4.9475,5.9915,2.4392,-2.4412,17.412,1.7741,1.5554,0.712,55.572,0.11248,-0.11291,0.29374,0.12421,0.50662,-0.089648,0.41748,0.26567,0.41753,0.10652,1.3332,0.18565,0.52596,-0.29452,0.24722,0.21696,0.23294,0.2423,0.27288,0.16443,0.16094,0.19497,0
879.43,115.92,113.57,13.489,43.397,5.2174,-5.1598,404.2,14.861,13.993,4.9611,5.2804,2.342,-2.3334,17.358,1.8061,1.6245,0.69524,52.138,0.1116,-0.11152,0.30799,0.10939,0.49614,-0.079537,0.41705,0.23425,0.41705,0.094157,1.3543,0.16363,0.51284,-0.2602,0.26659,0.19168,0.25377,0.21434,0.28943,0.14504,0.19052,0.17211,0
924.41,72.794,70.949,11.506,19.739,4.1432,-4.0784,481.51,15.075,13.19,6.8172,4.5675,2.7081,-2.7357,15.345,0.9213,0.77608,0.45898,19.612,0.093533,-0.093461,0.34111,0.15186,0.614,-0.1218,0.49263,0.28738,0.49261,0.13668,1.3925,0.24466,0.63045,-0.37456,0.27612,0.27571,0.25412,0.31301,0.3123,0.20481,0.16918,0.24568,0
807.62,86.458,83.743,12.804,32.968,5.2626,-5.2402,425.77,45.24,47.485,6.89,8.788,2.4629,-2.4502,15.212,1.1993,0.97674,0.6504,32.389,0.10795,-0.10778,0.11937,0.37941,0.71087,-0.22773,0.49205,0.68423,0.49066,0.29616,1.0575,0.58799,0.79807,-0.832,0.009965,0.61389,-0.017791,0.66627,0.069559,0.48314,-0.24427,0.56018,0
785.71,61.8,59.379,11.916,18.151,4.8229,-4.7736,413.04,12.653,11.614,4.6442,3.5033,2.3626,-2.3382,15.2,0.84292,0.66321,0.4685,20.888,0.09159,-0.091251,0.26444,0.18906,0.55141,-0.10815,0.44997,0.35356,0.44804,0.14368,1.2882,0.28407,0.59807,-0.4054,0.21399,0.29925,0.20191,0.32238,0.24142,0.23801,0.088801,0.27418,0
976.26,53.911,53.347,9.7121,16.005,3.847,-3.7785,450.41,11.881,10.033,6.2198,4.1291,2.562,-2.5202,17.346,0.95048,0.8422,0.42416,40.944,0.096751,-0.096981,0.41042,0.040954,0.49037,-0.038911,0.45128,0.090297,0.45142,0.039983,1.5067,0.063833,0.49143,-0.10876,0.38857,0.080022,0.3798,0.094067,0.40093,0.057267,0.35943,0.069838,0
976.61,55.201,54.697,9.9186,16.229,3.904,-3.826,462.35,28.19,26.011,7.4473,6.3778,2.6722,-2.6492,16.974,1.5737,1.5014,0.58468,29.832,0.098356,-0.098311,0.5196,-0.058624,0.4041,0.056728,0.45986,-0.13697,0.46089,-0.057907,1.6757,-0.089414,0.40282,0.15785,0.55211,-0.11615,0.56556,-0.13749,0.53373,-0.082596,0.59371,-0.10083,0
1173.2,79.828,78.562,20.974,27.449,7.9006,-7.8346,460.99,25.479,25.128,5.2724,8.6193,2.407,-2.4067,20.403,1.5563,1.3154,0.75936,80.676,0.15186,-0.15155,0.33674,0.1059,0.58417,-0.144,0.44127,0.26714,0.44139,0.12405,1.3881,0.1688,0.5671,-0.34216,0.24372,0.25149,0.18881,0.33031,0.29789,0.16344,0.17267,0.20435,0
1177.1,78.325,76.888,20.977,26.064,7.9129,-7.8538,501.22,12.478,11.38,4.6886,3.8905,2.3081,-2.3249,18.78,1.0147,0.81039,0.5807,75.536,0.13206,-0.13156,0.37027,0.11124,0.63081,-0.15203,0.4804,0.26087,0.48013,0.13069,1.4346,0.18374,0.61265,-0.36076,0.27171,0.26513,0.21321,0.34896,0.32911,0.17202,0.19726,0.21512,0
1173,80.439,79.143,21.292,27.19,7.872,-7.7691,445.72,19.634,19.542,5.7024,4.144,2.3834,-2.3969,21.069,1.3585,1.0507,0.76987,86.413,0.15825,-0.1573,0.30438,0.12048,0.58337,-0.16089,0.42409,0.3093,0.42363,0.13993,1.3394,0.18965,0.56532,-0.38556,0.2009,0.28341,0.14112,0.36969,0.26102,0.1851,0.11955,0.23119,0
895.22,104.37,103.12,18.439,50.642,6.3961,-6.3909,492.52,23.003,21.51,8.0908,7.1758,3.2623,-3.2421,14.508,1.1951,0.98444,0.64543,61.027,0.11302,-0.11266,0.31685,0.1962,0.66527,-0.15284,0.51281,0.356,0.51289,0.1749,1.3492,0.32133,0.68996,-0.48109,0.23476,0.35424,0.20756,0.40095,0.28027,0.26411,0.097029,0.31585,0
897.58,105.7,104.61,18.342,50.467,6.3127,-6.2978,447.73,20.664,20.009,5.653,5.8942,2.5905,-2.6027,15.996,1.2879,1.0753,0.67732,33.889,0.11734,-0.1168,0.28387,0.18253,0.60798,-0.14213,0.46607,0.36156,0.46627,0.16272,1.3077,0.28671,0.63105,-0.44768,0.20746,0.32965,0.18213,0.37314,0.24981,0.24575,0.079337,0.29387,0
895.37,104.25,102.92,18.444,50.126,6.4093,-6.4101,492.69,24.825,23.399,8.0044,8.9778,2.9607,-2.9607,14.509,1.2091,0.9968,0.65433,56.747,0.11527,-0.11516,0.31578,0.19754,0.66602,-0.15338,0.51298,0.35812,0.51313,0.17581,1.3475,0.32349,0.69115,-0.48366,0.23352,0.35614,0.20636,0.40282,0.27911,0.26572,0.094883,0.31767,0
1124.1,85.772,83.742,15.958,28.15,5.6648,-5.6265,427.87,12.79,12.124,3.7623,4.348,2.1265,-2.1198,20.999,1.2033,0.88352,0.73477,66.057,0.11567,-0.11534,0.28766,0.12474,0.56027,-0.14813,0.41234,0.31865,0.41222,0.13657,1.3188,0.19158,0.54962,-0.37358,0.19638,0.27477,0.14977,0.34445,0.24889,0.18538,0.10949,0.2299,0
1119,89.502,86.599,15.118,27.016,5.551,-5.5518,429.91,10.542,9.7322,3.7863,3.8564,2.1277,-2.1534,20.804,1.3261,1.0372,0.7258,60.464,0.11249,-0.11295,0.32267,0.095827,0.52782,-0.10898,0.4186,0.24007,0.41861,0.10292,1.3725,0.14721,0.5221,-0.28136,0.25604,0.20696,0.2236,0.25616,0.29418,0.14109,0.18882,0.17445,0
1119,89.649,86.751,15.072,27.035,5.5542,-5.5696,454.29,27.882,27.548,7.2053,6.7968,2.5521,-2.5608,19.794,2.0936,1.7198,0.94427,89.541,0.12953,-0.12942,0.54282,-0.079109,0.36686,0.097308,0.46248,-0.17946,0.46401,-0.088475,1.7208,-0.12966,0.37468,0.24296,0.60438,-0.17866,0.63712,-0.227,0.56892,-0.11915,0.65892,-0.14806,0
970.15,67.047,64.34,13.668,22.165,5.2684,-5.2642,419.11,23.135,22.737,6.6088,5.2368,2.3366,-2.3141,18.547,1.3026,0.97149,0.79854,77.359,0.12482,-0.1248,0.27569,0.14781,0.55373,-0.13011,0.42304,0.33664,0.42358,0.13921,1.3038,0.22384,0.56333,-0.37988,0.20402,0.27954,0.17733,0.32338,0.24424,0.20344,0.099196,0.24629,0
1009.9,68.247,61.22,15.342,21.78,5.1913,-5.2109,473.68,25.822,23.504,5.6959,4.1484,2.3032,-2.3369,17.086,1.2874,0.9868,0.72984,31.281,0.10446,-0.10484,0.32693,0.14514,0.59474,-0.12205,0.47144,0.31846,0.47233,0.13891,1.3777,0.22619,0.61355,-0.38398,0.25002,0.283,0.22114,0.32992,0.29255,0.20379,0.1476,0.24649,0
726.57,340.93,303.9,18.987,3.1701,7.537,-7.552,379.9,131.1,114.94,8.7256,3.3081,2.7421,-2.7674,14.547,2.4776,2.1382,0.9917,3.3318,0.11746,-0.11631,0.099924,0.38417,0.6092,-0.12619,0.485,0.70427,0.48484,0.23508,1.0742,0.5493,0.7603,-0.74673,0.044169,0.56216,0.033387,0.59427,0.072821,0.46795,-0.16884,0.49657,0
846.09,303.51,235.68,19.659,5.5435,6.4543,-6.4503,411.21,108.23,87.795,8.6556,5.8561,2.6532,-2.6613,15.936,2.8655,2.2549,1.4176,5.9513,0.12934,-0.12866,0.11569,0.34875,0.58691,-0.11903,0.46588,0.6638,0.46736,0.21847,1.0974,0.4954,0.72093,-0.68964,0.059838,0.51865,0.048587,0.55058,0.088386,0.42853,-0.13642,0.45797,0
685.22,454.1,478.93,25.668,2.2296,10.167,-10.149,345.51,150.1,149.48,8.8087,2.3471,2.7659,-2.8399,14.477,3.5065,3.2767,1.3206,2.3628,0.13445,-0.13104,0.11647,0.33214,0.62656,-0.13192,0.45998,0.65829,0.47748,0.22901,1.0946,0.48486,0.73552,-0.71355,0.051845,0.5351,0.036315,0.58215,0.085149,0.42701,-0.14573,0.46643,0
993.99,38.864,35.678,15.298,12.253,4.9848,-4.9329,457.3,8.0757,6.864,4.1601,2.6496,2.1888,-2.1719,17.389,0.6068,0.46669,0.37996,28.625,0.097803,-0.097749,0.34602,0.11196,0.56655,-0.10847,0.45796,0.24149,0.45803,0.11032,1.4041,0.17682,0.56842,-0.30008,0.28462,0.22079,0.25938,0.26087,0.31939,0.15726,0.20505,0.19208,0
995.04,64.275,50.869,14.706,10.313,4.1797,-4.0853,454.69,18.29,15.256,4.3449,2.6015,2.1784,-2.1896,17.491,0.7156,0.53662,0.37252,26.753,0.082228,-0.08152,0.18858,0.26711,0.62526,-0.16912,0.45571,0.55904,0.45596,0.21876,1.1799,0.39751,0.68302,-0.61728,0.097794,0.45599,0.071878,0.50439,0.14685,0.35055,-0.083164,0.4093,0
978.1,69.121,68.248,12.219,23.348,5.4212,-5.5205,400.61,11.991,10.609,5.6864,3.6691,2.4224,-2.4131,19.529,1.1854,0.93529,0.68115,40.121,0.12664,-0.12735,0.3095,0.093148,0.4887,-0.085802,0.40264,0.22672,0.40279,0.089743,1.3574,0.13844,0.49276,-0.24458,0.26144,0.17996,0.24272,0.21026,0.28851,0.12959,0.19524,0.15756,0
978.21,69.273,68.433,12.277,23.08,5.3546,-5.4439,392.76,9.3941,8.2849,4.2748,3.0678,2.2006,-2.1861,19.911,1.1077,0.90125,0.61688,40.332,0.11668,-0.11695,0.28522,0.10993,0.49881,-0.10331,0.39523,0.27278,0.39533,0.10698,1.3219,0.16279,0.50256,-0.29147,0.2269,0.21446,0.20366,0.2518,0.2598,0.15368,0.14876,0.18718,0
1019.7,90.396,83.038,18.668,37.046,7.1061,-7.1207,485.13,39.352,37.889,9.1171,26.323,2.6169,-2.6009,16.938,2.1498,1.51,1.4436,354.21,0.14124,-0.14207,0.54742,-0.060934,0.4242,0.061953,0.48459,-0.11485,0.48633,-0.062005,1.7309,-0.10299,0.42404,0.16933,0.5842,-0.1246,0.60024,-0.14966,0.56336,-0.087307,0.62734,-0.10703,0
1068,170.13,125.87,20.899,51.133,7.5821,-8.4303,437.38,33.075,28.469,7.0151,6.3651,2.5693,-2.8245,19.41,2.3691,0.46181,1.2099,133.39,0.14485,-0.15544,0.064476,0.33954,0.77827,-0.37304,0.39981,0.94019,0.40431,0.35942,0.99963,0.50065,0.76566,-0.98255,-0.16352,0.72285,-0.27071,0.88651,-0.033652,0.4966,-0.40251,0.61251,0
1071,93.723,82.22,20.318,25.418,7.9235,-8.0716,446.83,18.247,16.698,6.1383,3.7956,2.5223,-2.5095,19.178,1.5861,0.91593,1.0529,45.511,0.16354,-0.16569,0.35048,0.08968,0.52796,-0.086778,0.43998,0.20955,0.44063,0.089125,1.4155,0.1379,0.53018,-0.24349,0.29988,0.17917,0.27906,0.21245,0.32839,0.12706,0.23618,0.15511,0
1010.9,91.474,90.493,12.315,24.469,4.0278,-3.9908,450.48,25.341,24.854,6.2366,8.2487,2.7064,-2.7116,17.968,1.4389,1.1936,0.63567,58.829,0.098488,-0.098231,0.33559,0.11367,0.55161,-0.10146,0.44901,0.2455,0.44972,0.10854,1.3905,0.17712,0.55877,-0.29644,0.27838,0.21815,0.25715,0.25316,0.31037,0.15784,0.19745,0.19144,0
965.58,57.184,55.256,11.605,19.814,4.2147,-4.1895,449.47,17.017,12.972,11.082,7.5506,3.7753,-3.7798,17.189,0.8621,0.46787,0.70862,77.092,0.14066,-0.14208,0.29292,0.16218,0.60118,-0.14612,0.45484,0.3456,0.45509,0.15418,1.323,0.25354,0.6096,-0.42001,0.21237,0.30904,0.1817,0.35897,0.25771,0.22395,0.09722,0.27174,0
1154.7,62.651,61.181,14.794,25.173,5.1933,-5.1904,484.5,13.672,12.101,6.3741,4.6827,2.6497,-2.6114,19.074,1.047,0.84224,0.6313,61.52,0.1085,-0.10888,0.42754,0.049336,0.54212,-0.06638,0.47622,0.11804,0.47632,0.05734,1.5309,0.080209,0.53433,-0.15787,0.3851,0.11606,0.36018,0.15189,0.40984,0.075716,0.35187,0.094632,0
1143.3,97.412,97.247,15.121,31.83,5.2249,-5.211,513.69,27.95,25.66,7.9631,6.432,2.8037,-2.8434,17.816,1.3091,1.074,0.6964,96.467,0.10703,-0.10678,0.34162,0.15051,0.67937,-0.18824,0.49104,0.33291,0.49153,0.16941,1.3853,0.25081,0.66256,-0.46514,0.22284,0.342,0.15884,0.4363,0.29141,0.22732,0.11928,0.28279,0
895.67,222.88,181.55,15.27,36.612,5.1728,-5.1575,477.75,90.177,71.265,7.6159,9.274,2.7046,-2.6981,14.799,1.5239,1.2689,0.72065,37.974,0.09456,-0.094802,0.126,0.39203,0.67626,-0.16068,0.52041,0.73535,0.5188,0.27377,1.0916,0.58742,0.82569,-0.83177,0.031836,0.62131,0.009956,0.67005,0.080433,0.49783,-0.20773,0.55192,0
979.92,175.01,166.14,15.883,67.209,5.9554,-5.9203,485.58,44.499,42.106,6.3039,12.328,2.5592,-2.5581,16.02,1.5979,1.4081,0.66315,62.784,0.10331,-0.10311,0.24509,0.24535,0.69947,-0.20265,0.4921,0.49115,0.49384,0.22776,1.2418,0.39265,0.7249,-0.6285,0.13011,0.4629,0.088896,0.53343,0.19383,0.33841,-0.043177,0.40692,0
374.11,83.918,99.409,12.666,4.1922,4.0184,-4.0596,242.73,43.173,50.736,7.3871,3.9633,2.0341,-2.0792,12.267,0.80506,0.31004,0.67716,4.4305,0.083248,-0.081972,0.085931,0.40931,0.46305,-0.081334,0.45274,0.64868,0.4258,0.18674,1.0649,0.55095,0.69072,-0.65469,0.060311,0.50194,0.05786,0.5097,0.073561,0.45358,-0.12564,0.43625,0
1082.6,85.673,83.618,18.054,54.954,6.0414,-6.0136,502.05,39.142,38.462,8.5217,10.309,2.9276,-2.8795,17.374,2.0838,1.8369,0.92598,160.01,0.12062,-0.12073,0.62328,-0.11195,0.38395,0.12726,0.51001,-0.24283,0.51131,-0.12005,1.8525,-0.18385,0.39062,0.32812,0.70089,-0.24135,0.73878,-0.29868,0.65645,-0.16464,0.77937,-0.20353,0
1082.3,85.847,83.826,18,54.798,6.0517,-5.9957,473.33,14.716,13.135,6.4623,4.6679,2.7292,-2.6619,18.281,1.1595,0.90143,0.70358,146.91,0.11219,-0.11195,0.33449,0.12826,0.61335,-0.15084,0.46243,0.29694,0.46259,0.13974,1.383,0.20554,0.6031,-0.38201,0.24188,0.28099,0.1951,0.35109,0.29511,0.19009,0.15235,0.2356,0
948.57,26.323,20.395,17.29,10.886,3.4239,-3.4779,453,16.095,14.161,8.1808,8.0068,2.1675,-2.1528,16.771,0.72175,0.19693,0.65454,67.029,0.10057,-0.099788,0.17599,0.2922,0.72738,-0.26008,0.46767,0.60774,0.46774,0.27574,1.1369,0.46029,0.74398,-0.75085,0.033856,0.55246,-0.019468,0.63948,0.11383,0.40181,-0.17351,0.48703,0
917.5,90.015,91.162,17.324,28.222,5.4275,-5.4704,453.01,25.006,23.845,9.1048,9.2292,2.6058,-2.5868,16.187,1.0798,0.68298,0.81665,60.531,0.10564,-0.10731,0.31755,0.14726,0.59465,-0.12951,0.46439,0.30384,0.46502,0.13876,1.3594,0.23279,0.60441,-0.37889,0.24604,0.27882,0.21939,0.32265,0.28615,0.20284,0.1416,0.24553,0
924.96,99.766,99.8,13.732,40.044,5.1996,-5.2199,420.04,36.665,36.609,6.2111,11.5,2.1473,-2.145,17.741,2.4165,2.2891,0.87524,114.92,0.11583,-0.11618,0.4154,0.005017,0.4377,-0.016167,0.41951,0.029718,0.42097,0.011136,1.5169,0.006704,0.43166,-0.029173,0.40411,0.021407,0.39749,0.031089,0.41074,0.011265,0.39989,0.015859,0
925.8,99.942,99.921,13.887,40.188,5.2256,-5.2179,387.98,17.834,17.267,4.9965,5.8099,2.3445,-2.3372,19.049,1.3596,1.1401,0.69881,54.927,0.12189,-0.12212,0.23636,0.16376,0.53872,-0.13815,0.40015,0.38881,0.40044,0.1517,1.25,0.24219,0.55333,-0.41552,0.16026,0.30584,0.133,0.35137,0.20271,0.2242,0.044425,0.27027,0
879.47,77.844,75.733,13.61,36.241,5.1421,-5.1995,424.31,33.35,32.44,8.494,19.557,2.5838,-2.5626,16.628,1.4414,1.132,0.86749,60.857,0.12228,-0.1226,0.26763,0.17815,0.584,-0.13954,0.44494,0.38407,0.44518,0.15852,1.2921,0.26976,0.60528,-0.435,0.19375,0.32023,0.16931,0.362,0.23481,0.23907,0.06862,0.2861,0
932.58,64.084,61.907,17.086,24.346,6.9438,-6.873,451.17,26.74,25.615,7.9255,13.85,2.7115,-2.6916,16.595,1.5332,1.3835,0.68494,54.528,0.14637,-0.14632,0.46059,-0.010103,0.44726,0.003628,0.44973,-0.020126,0.45069,-0.006626,1.5837,-0.013952,0.44381,0.018665,0.46148,-0.013757,0.46079,-0.013167,0.4611,-0.011932,0.46832,-0.01344,0
932.61,64.031,61.842,17.093,24.073,6.9317,-6.8661,418.65,14.733,13.798,5.1743,5.3623,2.3755,-2.3429,17.824,1.0814,0.87768,0.57841,54.928,0.14588,-0.14553,0.31188,0.11449,0.51875,-0.092969,0.42597,0.25013,0.42608,0.10346,1.3585,0.17321,0.53022,-0.28303,0.26251,0.2083,0.24568,0.23675,0.29005,0.15452,0.18176,0.1856,0
932.58,64.067,61.871,17.103,24.314,6.9156,-6.8514,442.09,24.63,23.538,7.2875,11.52,2.6307,-2.6211,16.937,1.6045,1.4572,0.6608,69.833,0.14619,-0.14619,0.51294,-0.07597,0.37677,0.06067,0.43652,-0.1551,0.4372,-0.068096,1.6665,-0.11801,0.3686,0.18643,0.54495,-0.13721,0.55564,-0.15541,0.52712,-0.10216,0.59846,-0.12251,0
978.86,141.95,139.39,15.762,45.101,6.5171,-6.5062,462.25,30.249,29.292,6.9722,10.715,2.6225,-2.6173,16.976,2.47,2.345,0.73649,118.19,0.12892,-0.12935,0.41579,0.047471,0.5126,-0.048287,0.46283,0.10831,0.46378,0.048339,1.5157,0.074277,0.51228,-0.13189,0.38755,0.097038,0.37536,0.11642,0.40356,0.068021,0.35373,0.083428,0
978.66,141.98,139.43,15.749,44.762,6.5335,-6.5079,457.75,33.482,32.697,6.0284,10.399,2.4183,-2.396,17.165,2.6016,2.4529,0.796,123.83,0.12327,-0.12325,0.41356,0.045151,0.50393,-0.044288,0.45797,0.10046,0.45917,0.044987,1.5118,0.071091,0.50422,-0.12249,0.38838,0.090118,0.37798,0.10689,0.40264,0.063871,0.35613,0.078126,0
906.5,66.722,64.927,15.921,41.465,5.047,-5.0395,476.26,14.919,11.583,9.5273,6.1728,3.3393,-3.3408,15.224,0.96884,0.49645,0.78689,99.344,0.11886,-0.11933,0.40057,0.083579,0.5511,-0.067609,0.4836,0.15721,0.48382,0.075325,1.4879,0.13503,0.55965,-0.20605,0.36475,0.15165,0.35258,0.17219,0.38473,0.11263,0.30585,0.13523,0
830.11,89.508,82.413,12.587,24.54,5.0872,-5.0789,430.75,39.438,38.094,8.5677,7.952,3.2707,-3.2621,15.42,1.1014,0.90036,0.57763,27.39,0.11064,-0.11023,0.14482,0.34426,0.61582,-0.15164,0.48711,0.66508,0.47901,0.25192,1.1091,0.51836,0.7566,-0.74499,0.04809,0.55374,0.024555,0.5989,0.099262,0.43904,-0.17154,0.4973,0
870.92,73.832,71.669,13.96,23.441,5.5919,-5.5731,387.12,11.924,10.93,4.1316,3.679,2.1457,-2.1594,17.98,1.1686,0.93538,0.64508,49.204,0.11608,-0.11613,0.2742,0.12966,0.49763,-0.095665,0.40319,0.29142,0.4029,0.11177,1.307,0.1904,0.5162,-0.30768,0.22508,0.22655,0.20986,0.25314,0.25228,0.1715,0.13475,0.20386,0
834.35,77.408,77.009,12.699,24.451,5.1218,-5.087,404.6,34.764,35.991,6.9336,9.3269,2.7592,-2.7502,16.526,1.16,0.915,0.64125,24.625,0.11228,-0.11226,0.14232,0.31438,0.67165,-0.22115,0.45455,0.64825,0.45358,0.26489,1.1038,0.4745,0.72335,-0.73221,0.030421,0.53933,-0.002716,0.59823,0.092144,0.41209,-0.18693,0.48718,0
829.83,102.25,100.51,13.758,46.565,5.1972,-5.121,412.22,17.648,16.592,5.4529,5.4267,2.4664,-2.4668,16.069,1.5283,1.2743,0.77915,41.395,0.10861,-0.10842,0.29495,0.14128,0.52568,-0.092909,0.43487,0.28196,0.43455,0.11568,1.3334,0.21325,0.55332,-0.32214,0.24833,0.23747,0.23533,0.26121,0.27386,0.18344,0.15172,0.21522,0
828.94,101.62,99.796,13.71,46.444,5.1895,-5.138,414.7,18.352,17.506,4.7301,5.993,2.3116,-2.3057,15.944,1.3685,1.1251,0.72403,35.319,0.10349,-0.10346,0.27466,0.1689,0.55175,-0.11212,0.44244,0.33886,0.44166,0.13897,1.3028,0.25492,0.58424,-0.38674,0.2181,0.28508,0.20215,0.31408,0.2491,0.21976,0.10242,0.25812,0
829.9,102.18,100.43,13.781,46.767,5.1825,-5.1309,408.19,17.342,16.593,4.6269,5.1343,2.2819,-2.2815,16.218,1.4312,1.1806,0.74328,40.683,0.10774,-0.10791,0.27775,0.15714,0.53512,-0.10394,0.43371,0.31899,0.43309,0.12907,1.3085,0.23586,0.56556,-0.35928,0.2254,0.26485,0.21069,0.29163,0.25408,0.20432,0.11784,0.23987,0
957.26,60.948,59.449,13.289,19.951,5.5019,-5.4675,447.79,25.792,25.845,6.8735,5.021,2.8674,-2.8651,17.127,1.0555,0.85774,0.55347,49.373,0.11954,-0.11964,0.24085,0.21617,0.63731,-0.18077,0.45601,0.43529,0.45681,0.19861,1.2381,0.34185,0.65662,-0.54306,0.14294,0.39968,0.10841,0.45739,0.19763,0.29421,-0.009889,0.35444,1
957.22,61.034,59.548,13.168,19.892,5.4623,-5.4326,401.54,10.919,10.03,4.1374,3.2978,2.1928,-2.181,19.061,0.90917,0.76267,0.47228,41.708,0.11478,-0.11515,0.26316,0.14455,0.53551,-0.12778,0.40771,0.34371,0.40774,0.1364,1.2883,0.21512,0.54463,-0.37208,0.1927,0.2738,0.16636,0.31696,0.23226,0.19909,0.090153,0.24115,1
907.43,68.226,65.894,11.477,17.924,4.1928,-4.1334,447.02,12.361,11.802,3.6313,3.8994,2.0848,-2.0669,16.222,0.87145,0.70927,0.45382,17.409,0.080006,-0.079572,0.29233,0.17045,0.59522,-0.13382,0.46236,0.34276,0.46211,0.15164,1.3228,0.26548,0.61518,-0.41588,0.22175,0.30614,0.1984,0.346,0.261,0.22861,0.10202,0.27361,0
923.9,96.32,93.018,13.776,33.713,4.9645,-4.8944,449.75,19.133,18.303,4.7511,6.3769,2.3142,-2.3204,16.399,1.1654,0.98021,0.53933,30.95,0.095452,-0.09476,0.27841,0.18549,0.60572,-0.14254,0.46356,0.36853,0.46359,0.16374,1.3007,0.28961,0.6293,-0.4503,0.20325,0.33156,0.17878,0.37389,0.24494,0.24831,0.073272,0.29647,0
1032.4,116.45,106.44,17.478,22.049,6.8621,-6.8694,513.43,38.478,39.138,6.1966,5.249,2.917,-2.9265,16.101,1.5897,1.2839,0.70752,44.578,0.10618,-0.10733,0.40297,0.10686,0.61722,-0.10608,0.50877,0.23114,0.51045,0.10738,1.4977,0.1689,0.61813,-0.29274,0.34127,0.2154,0.31535,0.2566,0.37616,0.15199,0.26518,0.18607,0
1031.5,168.78,201.4,17.918,28.011,6.6449,-6.6593,523.22,20.568,20.415,5.5935,5.5616,2.54,-2.5536,15.729,2.0661,1.8937,0.92106,49.88,0.1033,-0.10383,0.45122,0.069759,0.61851,-0.096709,0.52093,0.16049,0.52129,0.085249,1.5649,0.11909,0.6094,-0.23953,0.38354,0.17539,0.34524,0.23153,0.4222,0.11221,0.33686,0.13994,0
843.7,281.52,231.97,15.324,16.454,4.7396,-4.8054,424.95,98.925,87.123,7.8364,9.7936,2.3349,-2.4036,15.428,2.1667,1.9462,0.58395,79.528,0.092334,-0.093283,0.13034,0.34568,0.64369,-0.16055,0.47694,0.64835,0.48048,0.24449,1.1016,0.51072,0.74577,-0.72284,0.057407,0.53777,0.040551,0.57833,0.096421,0.43298,-0.15834,0.48403,0
848.07,54.22,53.112,12.061,22.619,4.1258,-4.0786,465.84,21.864,20.046,8.434,9.0643,2.9364,-2.9099,14.576,0.85818,0.65712,0.55835,94.959,0.095226,-0.095079,0.28502,0.21325,0.65848,-0.16284,0.49786,0.40579,0.49701,0.18716,1.3065,0.3387,0.68626,-0.51405,0.19994,0.37843,0.17266,0.42542,0.24714,0.28431,0.050607,0.33931,0
882.1,53.162,53.315,14,9.0518,3.6436,-3.5282,494.36,27.675,25.916,9.0615,31.041,2.7203,-2.6996,14.3,0.88938,0.59824,0.64162,212.28,0.081849,-0.081704,0.29648,0.22438,0.70671,-0.18693,0.51998,0.41161,0.52033,0.20514,1.3135,0.37034,0.72654,-0.5604,0.19648,0.4124,0.16141,0.47104,0.25242,0.3043,0.037947,0.36643,0
1048.7,62.773,59.316,15.93,28.823,6.1621,-6.1592,430.87,7.8099,6.3815,4.4238,3.4953,2.174,-2.2412,19.463,0.96267,0.75696,0.62711,45.145,0.12402,-0.12445,0.33726,0.089393,0.52357,-0.096814,0.42663,0.21703,0.4267,0.093182,1.3948,0.13736,0.52005,-0.25375,0.28007,0.18669,0.25356,0.22737,0.31276,0.12924,0.21693,0.15927,0
1052.7,74.869,73.917,16.448,21.712,6.0001,-5.9896,435.47,16.681,16.15,5.8239,4.2669,2.4688,-2.4803,19.332,1.006,0.72504,0.65984,59.613,0.12388,-0.12395,0.29149,0.1367,0.58325,-0.15515,0.42795,0.33252,0.42813,0.14606,1.3224,0.21217,0.57473,-0.39853,0.19787,0.29317,0.15222,0.36223,0.25156,0.20036,0.1019,0.24772,0
1007.7,144.34,100.64,16.149,24.672,6.099,-6.0909,388.15,34.789,28.291,5.2993,3.5685,2.3296,-2.3223,20.671,2.2755,1.6649,0.83336,44.831,0.14311,-0.14355,0.19201,0.19448,0.4707,-0.079349,0.38752,0.46178,0.38924,0.13653,1.2095,0.26333,0.54262,-0.41866,0.14242,0.31332,0.13047,0.33972,0.16766,0.24945,0.024909,0.27591,0
939.19,93.556,93.678,10.082,24.631,4.4567,-4.4658,518.25,64.342,64.22,8.453,17.555,2.7731,-2.758,14.679,2.0971,2.0305,0.75354,233.37,0.087013,-0.087417,0.3724,0.15529,0.69363,-0.16323,0.52543,0.31798,0.52915,0.16205,1.4378,0.26058,0.69169,-0.44188,0.2738,0.32509,0.23081,0.39259,0.32959,0.2256,0.16269,0.27791,0
928.42,92.989,91.066,10.728,22.431,4.427,-4.5352,456.96,30.022,28.998,6.8368,7.1452,2.6042,-2.6331,16.27,1.4433,1.256,0.61096,23.888,0.098939,-0.099671,0.33855,0.12738,0.58213,-0.11543,0.46588,0.2802,0.46638,0.12234,1.3962,0.19766,0.58935,-0.33422,0.27321,0.24596,0.24808,0.28691,0.30987,0.17734,0.18271,0.2153,0
902.21,51.335,46.916,13.854,18.588,5.18,-5.2538,439.5,8.3602,6.9789,4.5398,3.4603,2.2908,-2.2928,16.418,0.805,0.24196,0.71523,22.987,0.10188,-0.10177,0.32813,0.12348,0.54697,-0.096825,0.4509,0.24848,0.45086,0.1095,1.3789,0.19189,0.56126,-0.29993,0.27755,0.22075,0.26093,0.24907,0.30571,0.16514,0.19083,0.19764,0
839.83,123.57,128.84,15.305,39.236,4.962,-5.0364,435.36,17.952,17.041,5.844,5.0212,2.3845,-2.3871,15.39,1.8097,1.6372,0.87136,49.761,0.10005,-0.10062,0.36107,0.088375,0.51628,-0.066931,0.44931,0.17806,0.44956,0.078083,1.4303,0.13733,0.52893,-0.2156,0.3249,0.1588,0.31319,0.17919,0.34485,0.11881,0.263,0.14166,0
801.57,61.451,59.196,12.977,24.961,4.9041,-4.9154,412.87,25.978,24.386,7.4737,14.794,2.2924,-2.2713,15.563,1.2284,0.91443,0.76385,107.81,0.10635,-0.10654,0.27974,0.16607,0.5473,-0.10728,0.44421,0.33681,0.44288,0.1344,1.3128,0.248,0.58104,-0.37437,0.22661,0.27596,0.21217,0.30228,0.2557,0.21429,0.1135,0.25088,0
1040.5,104.94,84.248,15.68,26.361,5.0267,-5.0467,494.72,62.726,60.065,8.1955,8.6163,2.782,-2.7788,17.056,2.6407,2.3732,0.93801,74.291,0.10378,-0.10403,0.46894,0.024755,0.57985,-0.087109,0.48484,0.33396,0.49183,0.08475,1.6432,6.1e-05,0.5676,-0.20536,0.3763,0.14744,0.33511,0.20586,0.42812,0.073305,0.33585,0.11871,0
1048.8,75.835,72.553,15.472,26.323,5.0207,-5.0125,506.16,50.087,50.13,8.3596,6.8072,2.8557,-2.8595,16.796,2.4424,2.227,0.77595,84.091,0.10557,-0.10555,0.94023,-0.41386,0.083441,0.44137,0.52315,-0.83212,0.52564,-0.42868,2.3895,-0.69454,0.095956,1.168,1.2006,-0.85932,1.3194,-1.0428,1.052,-0.59682,1.4932,-0.73452,0
770.32,360.9,345.41,18.418,54.522,4.5456,-4.6003,354.32,85.133,82.924,5.8818,4.7954,1.7239,-1.7378,16.468,4.2844,4.08,1.2478,86.144,0.097456,-0.09797,0.17429,0.2327,0.54019,-0.11485,0.41278,0.49336,0.41774,0.17155,1.1733,0.33232,0.6026,-0.50686,0.11978,0.37702,0.10584,0.41118,0.14891,0.29819,-0.028009,0.33583,0
740.93,81.383,80.231,7.9257,24.405,3.3106,-3.3243,398.24,15.829,14.79,5.1811,5.2224,2.3828,-2.398,14.852,1.1865,1.1054,0.41546,42.447,0.085016,-0.085401,0.27311,0.16887,0.52018,-0.089288,0.43809,0.31466,0.4361,0.12385,1.3037,0.25056,0.56723,-0.35341,0.23213,0.26127,0.22295,0.27942,0.25427,0.21027,0.12247,0.23968,0
759.73,76.972,75.323,8.3771,17.442,3.6772,-3.6871,399.39,13.718,12.65,5.2446,4.589,2.4851,-2.4682,15.193,1.1878,1.0885,0.42919,21.72,0.083967,-0.084074,0.28845,0.14603,0.50458,-0.079093,0.43092,0.27358,0.42972,0.10836,1.3261,0.21719,0.54397,-0.30817,0.25183,0.22773,0.24344,0.24414,0.27165,0.18255,0.15639,0.20879,0
809.7,68.906,67.446,11.948,25.555,4.7242,-4.6967,437.85,27.696,26.769,7.8384,13.766,2.5876,-2.5715,14.81,1.0979,0.85923,0.65538,53.558,0.10346,-0.10366,0.2546,0.2263,0.61898,-0.14577,0.47802,0.41929,0.47696,0.18269,1.2661,0.35053,0.66483,-0.50909,0.18285,0.37528,0.16339,0.41088,0.22214,0.29168,0.028918,0.34124,0
806.41,73.844,72.95,12.404,26.835,4.6073,-4.5732,415.17,15.053,14.302,4.7019,5.0833,2.2796,-2.2501,15.518,1.0178,0.81053,0.58113,23.252,0.095059,-0.094963,0.26725,0.18341,0.56185,-0.11746,0.44842,0.3554,0.44745,0.14765,1.2905,0.27812,0.59938,-0.41168,0.20961,0.30349,0.19408,0.332,0.24117,0.23614,0.084975,0.27608,0
809.76,69.139,67.687,11.965,25.268,4.7127,-4.6777,407.27,17.7,16.696,6.3889,5.7145,2.5509,-2.55,15.899,1.0661,0.83282,0.62173,20.053,0.11026,-0.10998,0.26696,0.17326,0.54445,-0.1104,0.43801,0.34435,0.43704,0.13906,1.2926,0.2597,0.58015,-0.38776,0.21303,0.28586,0.19862,0.31236,0.24255,0.22273,0.095402,0.26024,0
846.59,89.961,95.028,16.69,22.45,4.7942,-4.8092,491.33,23.537,22.745,8.8966,6.6538,3.1074,-2.9778,13.762,0.96383,0.31161,0.61006,53.473,0.093368,-0.093915,0.33911,0.18018,0.66432,-0.14543,0.51829,0.31844,0.51916,0.16258,1.381,0.30063,0.68306,-0.44541,0.26171,0.32785,0.23532,0.37267,0.30486,0.24326,0.13474,0.29195,0
894,94.532,93.078,10.488,21.336,4.3926,-4.3573,430.24,31.053,30.35,8.0685,10.364,2.8614,-2.841,16.628,1.3779,1.2299,0.6176,46.592,0.11219,-0.11222,0.24658,0.20544,0.61222,-0.16091,0.45174,0.437,0.45182,0.18368,1.2583,0.31326,0.63775,-0.50518,0.15975,0.37198,0.13079,0.42151,0.20788,0.27697,0.015478,0.33141,0
786.67,73.497,72.176,10.514,23.313,4.0522,-4.0118,455.14,28.441,27.521,7.3077,11.336,2.651,-2.6431,13.894,1.6808,1.5746,0.56148,32.761,0.08201,-0.08198,0.5169,-0.07849,0.40008,0.042969,0.44011,-0.12976,0.44086,-0.05856,1.6741,-0.12339,0.37926,0.16625,0.53683,-0.12282,0.54143,-0.13179,0.52604,-0.098289,0.58831,-0.1126,0
787.77,73.951,72.578,10.586,24.247,3.9857,-3.9563,405.32,29.032,28.564,7.3479,12.447,2.4279,-2.4312,15.616,1.7397,1.5951,0.66959,88.704,0.10378,-0.10366,0.37268,0.041427,0.43603,-0.023997,0.41165,0.07433,0.41299,0.031634,1.4505,0.063409,0.44589,-0.088985,0.36161,0.065653,0.35898,0.070712,0.36764,0.052175,0.33404,0.060229,0
775.89,59.916,59.443,12.312,15.005,4.1089,-4.2135,404.21,11.781,9.5546,6.8881,3.9602,2.6029,-2.5727,15.354,1.0596,0.74356,0.69063,33.489,0.10661,-0.10696,0.34636,0.074294,0.46417,-0.046515,0.41919,0.14599,0.41907,0.058928,1.4116,0.11132,0.47978,-0.16444,0.3241,0.12122,0.3183,0.13196,0.33629,0.094934,0.27387,0.11066,0
1064.6,101.68,96.841,17.27,29.917,6.1162,-6.1332,473.54,53.019,55.304,8.8445,16.574,2.9253,-2.9241,18.142,2.1564,1.7846,0.98817,107.38,0.13811,-0.13821,0.30465,0.15859,0.62825,-0.16333,0.46125,0.3485,0.46399,0.16272,1.3375,0.254,0.62766,-0.44497,0.20685,0.32737,0.16376,0.39476,0.26222,0.22847,0.094593,0.28029,0
1036.5,51.608,47.578,16.396,17.52,5.5999,-5.6473,492.52,37.003,35.603,8.3745,31.76,2.4877,-2.501,16.928,1.5017,1.1142,1.0039,239.68,0.1138,-0.11349,0.48826,0.004114,0.4918,0.000749,0.49106,0.002689,0.49246,0.001755,1.6301,0.007233,0.49419,-0.004704,0.48974,0.003464,0.49178,0.000956,0.48875,0.004161,0.4866,0.004427,0
1094.6,95.525,92.904,18.226,30.56,6.3946,-6.6255,489.3,27.976,25.991,9.7693,17.87,3.1591,-3.1482,17.932,1.6591,1.3095,0.93916,98.844,0.13388,-0.136,0.39261,0.088237,0.58785,-0.10737,0.47971,0.20474,0.48063,0.097809,1.4757,0.14244,0.57915,-0.26788,0.32586,0.19702,0.29081,0.24904,0.36435,0.13203,0.26471,0.164,0
871.05,67.792,66.345,12.286,25.028,5.2603,-5.2241,510.88,50.824,49.166,8.7398,32.197,2.6999,-2.687,13.741,1.443,1.3076,0.65255,134.51,0.094156,-0.094217,0.27444,0.27144,0.74602,-0.20373,0.54251,0.46295,0.5441,0.23609,1.2732,0.45426,0.78315,-0.64925,0.16888,0.47801,0.13555,0.53582,0.2274,0.36046,-0.020674,0.42932,0
878.31,69.274,68.064,12.532,26.489,5.2786,-5.2453,451.47,30.71,30.496,8.0636,11.601,2.443,-2.4357,15.61,1.3724,1.1485,0.73376,63.466,0.11272,-0.1127,0.33489,0.13275,0.57209,-0.10535,0.46637,0.26176,0.46721,0.11867,1.3875,0.20937,0.58687,-0.32517,0.27927,0.23935,0.26069,0.27098,0.31024,0.17837,0.18589,0.21373,0
926.81,157.31,151.97,13.747,47.808,5.4005,-5.3217,444.06,37.582,34.719,7.6056,14.529,2.6398,-2.6403,16.656,2.1937,1.9181,0.8971,91.859,0.11276,-0.11265,0.31914,0.13471,0.55253,-0.097793,0.45345,0.27968,0.45463,0.11862,1.3672,0.20805,0.57603,-0.32985,0.2637,0.24318,0.24589,0.27459,0.29411,0.18178,0.16972,0.21619,0
933.73,223.53,217.65,15.231,34.785,5.9083,-5.8519,426.02,54.024,45.857,6.508,9.5386,2.6719,-2.6699,17.297,2.4619,2.1369,0.91777,41.674,0.11659,-0.11645,0.23321,0.2064,0.55573,-0.11268,0.44243,0.48685,0.44297,0.17138,1.2509,0.3023,0.62654,-0.49895,0.15234,0.37004,0.12855,0.41442,0.19508,0.27953,0.013604,0.32538,0
563.12,261.14,322.05,20.262,22.477,5.208,-5.1963,314.85,74.322,81.349,9.3469,26.57,2.2176,-2.2313,13.755,2.6905,2.7917,1.1398,30.157,0.081683,-0.081321,0.17136,0.25544,0.53846,-0.11135,0.42909,0.51682,0.43348,0.18347,1.1655,0.3711,0.6378,-0.5517,0.11196,0.41128,0.097312,0.44676,0.14344,0.3269,-0.048397,0.36529,0
668.89,52.735,50.894,11.696,17.499,4.5777,-4.5857,400.57,26.599,25.502,6.715,15.521,2.1659,-2.1479,13.389,1.06,0.85168,0.60308,108.73,0.10178,-0.10198,0.25813,0.21293,0.54219,-0.094222,0.46426,0.3701,0.45825,0.14251,1.2835,0.31343,0.61448,-0.41711,0.21836,0.30944,0.211,0.32495,0.23964,0.25683,0.087131,0.28508,0
668.08,79.974,60.516,12.954,14.31,4.8578,-5.0009,382.71,35.958,27.676,4.6562,2.6577,2.2292,-2.2964,13.923,0.69605,0.45298,0.47933,26.806,0.098652,-0.099675,0.067316,0.47015,0.55346,-0.11226,0.52543,0.79315,0.47953,0.23771,1.0367,0.64161,0.79119,-0.79675,0.025965,0.60537,0.020857,0.61995,0.04728,0.53439,-0.20533,0.53483,0
754.77,42.279,42.379,6.3543,8.1841,2.2064,-2.1219,386.35,17.284,17.324,4.7617,2.8827,2.2047,-2.1798,15.637,0.71994,0.53313,0.38942,10.166,0.069734,-0.069133,0.20723,0.23732,0.56846,-0.13706,0.43955,0.45958,0.4375,0.1809,1.2061,0.3521,0.62609,-0.50954,0.14343,0.37602,0.12807,0.40523,0.17816,0.29885,-0.014026,0.34466,1
751.5,56.302,49.078,6.4601,8.2299,2.2615,-2.1992,386.06,18.581,15.55,4.1628,2.5877,2.1477,-2.1517,15.557,0.71956,0.59915,0.31104,15.041,0.068683,-0.067318,0.16911,0.28856,0.52387,-0.10284,0.45646,0.58587,0.44014,0.18752,1.1662,0.40602,0.65728,-0.57437,0.10987,0.429,0.098231,0.45315,0.14071,0.35349,-0.06234,0.38685,1
669.28,96.105,95.127,9.3406,31.807,3.7635,-3.7364,387.81,28.005,27.918,7.1866,8.9836,2.5406,-2.5282,13.833,1.9564,1.8442,0.6479,47.499,0.097287,-0.097559,0.33465,0.079428,0.44463,-0.037285,0.40993,0.14098,0.41039,0.054875,1.3955,0.11783,0.46956,-0.15896,0.3187,0.11773,0.3156,0.12425,0.32726,0.096772,0.26871,0.10852,0
669.47,96.453,95.562,9.3377,31.848,3.7677,-3.7314,372.05,14.538,13.615,5.0411,5.3111,2.3981,-2.4075,14.351,1.6433,1.5085,0.5913,40.353,0.096266,-0.096249,0.28452,0.13075,0.45774,-0.056237,0.4093,0.23392,0.40769,0.086677,1.324,0.18955,0.50336,-0.25535,0.26069,0.18966,0.2563,0.19914,0.27341,0.15762,0.18079,0.17425,0
1317.4,161.08,153.62,22.015,58.818,6.1415,-6.1478,603.35,56.945,55.833,9.6267,11.124,3.0272,-3.034,17.624,2.7497,2.5994,0.85786,221.86,0.10417,-0.10409,0.64404,-0.030882,0.5921,0.014609,0.60478,-0.025428,0.61025,-0.025675,1.9157,-0.064132,0.58647,0.062277,0.6462,-0.046714,0.62825,-0.028925,0.6464,-0.039651,0.67454,-0.048088,0
1394.9,62.511,57.565,23.723,21.297,8.3007,-8.1119,500.65,7.6102,5.8875,4.6839,3.2137,2.2237,-2.1559,22.287,0.88001,0.47845,0.67038,41.213,0.13914,-0.13655,0.36641,0.09635,0.62725,-0.17615,0.45901,0.26197,0.45748,0.13044,1.4289,0.15856,0.59341,-0.37318,0.24191,0.27297,0.13832,0.41015,0.3167,0.16226,0.18876,0.20537,0
1237.9,124.39,119.35,18.537,36.829,6.1948,-6.197,504.3,21.927,20.865,6.8246,5.9727,2.7569,-2.7526,19.608,1.4521,1.2062,0.73399,58.9,0.1172,-0.11736,0.32857,0.14188,0.6698,-0.20305,0.46884,0.3438,0.46846,0.17121,1.3666,0.23382,0.64319,-0.47597,0.19365,0.34948,0.10951,0.46906,0.27244,0.2233,0.10064,0.27975,0
773.99,67.828,66.964,8.9128,23.195,4.0294,-4.0372,435.84,26.835,25.532,6.7901,8.9952,2.7105,-2.7057,14.23,1.2177,1.0855,0.53602,107.45,0.097205,-0.097731,0.30301,0.17157,0.56671,-0.10062,0.47032,0.30104,0.47003,0.13182,1.3406,0.2663,0.60708,-0.37063,0.25602,0.27346,0.24455,0.29528,0.28163,0.2167,0.14173,0.25045,0
1008.1,130.97,126.58,18.139,56.275,5.3272,-5.2999,466.77,30.351,27.65,8.0933,7.8721,3.0483,-3.0655,17.245,1.6344,1.382,0.83898,92.438,0.11834,-0.11805,0.28822,0.1771,0.64357,-0.17548,0.46562,0.4013,0.46668,0.17838,1.3157,0.27757,0.64602,-0.48756,0.18491,0.35873,0.14127,0.42818,0.24322,0.25274,0.059026,0.30919,0
1008.1,131.03,126.65,18.123,56.523,5.352,-5.3038,425.17,30.213,30.812,6.6339,7.7428,2.3082,-2.3325,18.954,1.9891,1.703,0.95679,128.48,0.12016,-0.11985,0.27733,0.14665,0.56307,-0.13686,0.42409,0.33527,0.42511,0.1435,1.3031,0.22566,0.56965,-0.39296,0.19797,0.28918,0.16626,0.34059,0.2425,0.20653,0.093846,0.25125,0
904.17,145.5,141.03,17.51,77.726,6.8333,-6.7917,417.45,36.809,36.319,5.8546,12.421,2.3976,-2.4239,17.318,2.3354,2.1112,0.93937,117.23,0.13331,-0.13279,0.28796,0.14321,0.5388,-0.107,0.43073,0.31184,0.43178,0.12689,1.3232,0.21671,0.561,-0.35117,0.22858,0.25876,0.20938,0.29234,0.26126,0.1932,0.12822,0.23039,0
904.59,145.02,140.61,17.57,76.265,6.8791,-6.8381,430.4,28.788,28.012,4.0926,7.9993,2.2522,-2.2821,16.721,1.7433,1.5054,0.78675,60.136,0.1238,-0.12304,0.25967,0.18873,0.58604,-0.13734,0.44875,0.39204,0.44897,0.16526,1.2769,0.28917,0.61793,-0.45898,0.18335,0.33834,0.15904,0.38114,0.22522,0.25368,0.051833,0.30148,0
987.07,74.956,65.545,19.137,27.367,8.5824,-8.4325,405.31,15.363,10.167,11.724,8.7886,4.5547,-4.2851,19.476,1.2488,0.049963,1.193,69.742,0.1928,-0.18862,0.36618,0.040461,0.44227,-0.035574,0.40635,0.092372,0.40667,0.038056,1.4409,0.061102,0.44488,-0.10387,0.34664,0.076435,0.33934,0.088417,0.35761,0.055649,0.31796,0.067351,0
830.85,70.192,67.772,10.18,20.146,4.5795,-4.5457,445.39,33.709,32.36,7.2526,9.662,2.6296,-2.6069,14.986,1.5006,1.3539,0.63872,82.452,0.10162,-0.10173,0.331,0.13769,0.56179,-0.096045,0.46704,0.26697,0.4672,0.11557,1.3851,0.21287,0.58484,-0.31934,0.28265,0.23519,0.2686,0.26027,0.3093,0.18009,0.18743,0.21283,0
830.78,70.223,67.759,10.271,20.029,4.6197,-4.5911,452.58,14.346,12.449,7.0943,4.4284,2.7806,-2.775,14.673,0.98715,0.85245,0.45475,41.084,0.099885,-0.099867,0.32727,0.15084,0.57228,-0.098756,0.47638,0.27406,0.47575,0.12268,1.3763,0.2362,0.6016,-0.34121,0.27859,0.25148,0.26521,0.27587,0.30529,0.19492,0.17564,0.2285,0
830.65,70.045,67.64,10.236,20.129,4.5857,-4.5445,468.83,14.955,13.2,6.7632,4.5742,2.7603,-2.7869,14.162,0.95556,0.83776,0.42036,62.664,0.090838,-0.0906,0.34343,0.15097,0.58853,-0.098747,0.49255,0.26396,0.49202,0.12272,1.3985,0.24054,0.61793,-0.34138,0.29477,0.2516,0.2814,0.27597,0.32146,0.19505,0.19175,0.22862,0
736.22,96.966,96.113,11.607,41.6,4.6136,-4.5256,430.79,24.915,24.208,5.8684,8.5567,2.6392,-2.6566,13.624,1.1441,0.98166,0.55236,93.756,0.095062,-0.094466,0.25279,0.24177,0.60578,-0.12678,0.48931,0.41074,0.48627,0.17659,1.2649,0.37224,0.67349,-0.50461,0.19498,0.37313,0.18209,0.3988,0.2262,0.30066,0.038355,0.34227,0
943.49,73.156,73.183,8.7942,25.383,3.1971,-3.0726,426.77,12.853,10.944,6.6351,4.1646,2.686,-2.689,17.673,1.0612,0.95391,0.43891,50.626,0.096323,-0.095764,0.30452,0.12956,0.5468,-0.11261,0.43401,0.28332,0.43416,0.12121,1.3448,0.19886,0.55587,-0.33082,0.24296,0.24344,0.22037,0.28075,0.27748,0.17773,0.15111,0.21491,0
943.5,73.071,73.127,8.778,25.24,3.2008,-3.0807,426.35,11.668,10.169,5.6244,3.6962,2.4335,-2.4208,17.689,1.0495,0.95248,0.41111,52.959,0.086573,-0.086018,0.30754,0.12592,0.54331,-0.10973,0.43343,0.27621,0.43354,0.11795,1.3496,0.1931,0.55197,-0.32192,0.24749,0.23689,0.22539,0.27336,0.28117,0.17284,0.15821,0.20905,0
918.76,93.243,87.833,14.124,32.018,5.0199,-5.0138,451.15,38.549,37.173,9.0261,15.651,2.6087,-2.6122,16.324,1.4221,0.92365,1.0351,193.47,0.10245,-0.10322,0.21134,0.26058,0.67707,-0.20645,0.47021,0.521,0.47135,0.23342,1.1944,0.40954,0.70699,-0.6403,0.10124,0.47136,0.064414,0.53413,0.16245,0.35086,-0.082066,0.42039,0
959.48,74.664,74.05,13.007,24.266,4.6858,-4.6201,478.32,49.044,51.731,7.1779,7.0355,2.6956,-2.6735,16.183,1.7777,1.5064,0.66869,63.059,0.099086,-0.098464,0.43227,0.047991,0.51951,-0.039311,0.4785,0.1181,0.48024,0.043609,1.5519,0.066092,0.52399,-0.11894,0.41151,0.087508,0.40466,0.099215,0.42308,0.064874,0.37741,0.078085,0
959.44,74.647,74.062,12.895,23.98,4.6391,-4.594,445.51,14.391,13.476,5.369,3.9362,2.4126,-2.3624,17.212,0.95509,0.77454,0.51048,46.802,0.098235,-0.097924,0.28198,0.17045,0.60559,-0.15276,0.45248,0.36338,0.45267,0.16232,1.3056,0.26668,0.61568,-0.44307,0.1966,0.32605,0.16416,0.37899,0.24453,0.23603,0.075623,0.28625,0
959.47,74.677,74.034,13.014,24.1,4.6846,-4.6259,458.67,17.276,16.156,6.4296,5.1764,2.6173,-2.6046,16.728,1.0156,0.80151,0.55653,33.676,0.10383,-0.10362,0.29778,0.16769,0.61493,-0.14913,0.46541,0.34717,0.46568,0.15908,1.3275,0.26542,0.62546,-0.43431,0.21467,0.31961,0.18336,0.37084,0.26129,0.2318,0.095672,0.28091,0
565.46,22.67,21.61,5.8525,6.816,2.1591,-2.1365,370.76,8.0932,6.5685,4.6653,2.9095,2.3093,-2.303,12.202,0.42935,0.308,0.29208,14.631,0.066905,-0.067217,0.25489,0.20496,0.48457,-0.064263,0.44281,0.31147,0.43635,0.11489,1.2813,0.29645,0.5749,-0.35924,0.23209,0.26956,0.22917,0.27665,0.2441,0.23506,0.12058,0.24563,0
570.13,30.299,29.783,6.9561,11.688,2.0408,-2.0644,348.4,27.772,27.584,6.3066,8.8402,1.8534,-1.883,13.161,1.1052,0.88716,0.60225,41.212,0.070929,-0.071175,0.28184,0.11674,0.42011,-0.040805,0.38779,0.19578,0.38739,0.069272,1.3223,0.16669,0.46813,-0.21167,0.26648,0.15816,0.26427,0.1633,0.27461,0.13591,0.20019,0.14496,0
592.19,41.054,40.666,6.072,10.769,2.3692,-2.2976,379.5,11.245,9.8557,5.2359,3.8261,2.3928,-2.3689,12.483,0.76662,0.67652,0.33726,23.532,0.070212,-0.069684,0.30468,0.12637,0.45232,-0.042923,0.42037,0.19513,0.41837,0.073839,1.3524,0.18459,0.50518,-0.227,0.28882,0.1698,0.2866,0.17503,0.29721,0.14651,0.2179,0.1554,0
1074,44.93,41.177,14.992,19.255,4.8465,-4.7977,465.03,5.022,2.9209,4.0581,2.5797,2.1899,-2.111,18.476,0.72267,0.31162,0.65423,28.057,0.089653,-0.089312,0.46247,0.002383,0.4674,-0.002539,0.46482,0.005386,0.46486,0.00246,1.588,0.003761,0.46731,-0.006685,0.46099,0.004919,0.46032,0.00595,0.46184,0.003424,0.4593,0.004216,0
1791.9,266.22,262.28,39.784,472.83,17.16,-17.383,538.89,46.138,44.652,12.734,10.169,3.6576,-3.767,26.576,3.0663,1.9818,2.2557,1418.5,0.20096,-0.20198,0.41698,0.067639,0.65537,-0.2077,0.47068,0.22564,0.4691,0.11954,1.5084,0.11516,0.60506,-0.3945,0.244,0.27798,-0.014281,0.5862,0.35315,0.13778,0.24374,0.17491,0
959.25,118.27,114.2,13.088,34.236,5.8634,-5.8755,538.84,78.358,78.79,8.7554,20.85,2.9212,-2.9143,14.417,2.0623,1.9771,0.74169,116.82,0.10131,-0.10151,0.23833,0.31335,0.81755,-0.26321,0.54761,0.53916,0.55317,0.29055,1.1954,0.54631,0.84598,-0.79607,0.09286,0.58602,0.041201,0.67299,0.17393,0.42944,-0.1292,0.51778,0
959.43,118.15,114.05,13.055,34.333,5.8706,-5.8779,440.91,21.206,20.554,4.7655,7.6889,2.307,-2.3018,17.354,1.4531,1.2907,0.54956,56.057,0.1149,-0.11532,0.27756,0.1703,0.58937,-0.14024,0.44824,0.3596,0.44861,0.15674,1.3014,0.26385,0.60707,-0.43076,0.19951,0.31716,0.172,0.36362,0.24287,0.23303,0.079281,0.28027,0
959.25,118.25,114.21,12.945,34.47,5.7477,-5.764,451.89,21.563,20.588,6.1022,7.7969,2.5392,-2.5407,16.94,1.5524,1.362,0.62334,54.219,0.11443,-0.11478,0.30329,0.15496,0.58764,-0.1282,0.45856,0.32016,0.45894,0.14292,1.339,0.24264,0.60339,-0.39265,0.23188,0.2891,0.20661,0.3317,0.27157,0.21222,0.12243,0.25536,0
1007.8,92.729,90.202,15.522,26.421,6.0079,-5.9869,458.2,41.81,42.356,7.8255,8.3336,2.5709,-2.5515,17.708,2.0053,1.6763,0.96135,134.78,0.12704,-0.12696,0.41091,0.04692,0.50797,-0.049849,0.4561,0.12218,0.45797,0.04873,1.5126,0.069487,0.50683,-0.1328,0.38122,0.097716,0.36783,0.11846,0.39813,0.067815,0.34797,0.083492,0
785.64,290.58,252.64,15.116,42.387,4.7817,-4.7756,364.12,74.916,71.152,6.7262,15.254,1.9766,-1.9771,16.683,3.7659,3.5551,0.92647,278.86,0.10188,-0.10178,0.17741,0.23744,0.52342,-0.10561,0.41538,0.48128,0.41706,0.16507,1.178,0.33737,0.59792,-0.49208,0.12897,0.36656,0.11801,0.3932,0.1547,0.29645,-0.017314,0.32938,0
527.84,229.93,282.85,14.471,61.238,3.3508,-3.3819,299.93,59.674,66.252,7.8311,20.308,1.7821,-1.7732,13.574,2.6947,2.9526,0.75297,126.37,0.073433,-0.07431,0.16863,0.24781,0.51756,-0.10289,0.41489,0.48632,0.41667,0.16626,1.166,0.35153,0.60121,-0.50033,0.12406,0.37327,0.11455,0.39775,0.14788,0.30526,-0.025455,0.33586,0
913.85,86.71,84.804,17.447,29.288,6.9523,-6.8892,443.45,14.233,13.484,4.7288,4.0473,2.367,-2.3823,16.461,1.1556,0.97325,0.54336,25.516,0.12199,-0.12152,0.31543,0.14004,0.5657,-0.11089,0.45522,0.28556,0.45521,0.1257,1.3592,0.2177,0.58226,-0.3452,0.25567,0.25415,0.23562,0.28828,0.28884,0.18896,0.15718,0.22638,0
881.52,61.937,56.959,16.444,20.23,5.9249,-5.8741,467.06,41.854,42.42,7.6667,10.585,2.4499,-2.4319,15.168,1.2282,1.0043,0.66745,46.062,0.11536,-0.11549,0.15331,0.35551,0.75613,-0.25411,0.50555,0.65471,0.50543,0.30238,1.0969,0.56629,0.81314,-0.83526,0.022687,0.61524,-0.016839,0.68476,0.094759,0.46813,-0.22364,0.55449,0
1003,63.315,60.499,12.314,20.187,4.5015,-4.5017,425.41,8.7149,6.9174,5.1484,2.8096,2.3782,-2.374,18.854,0.98654,0.7844,0.55775,40.28,0.10292,-0.10308,0.32408,0.10102,0.52073,-0.095291,0.42518,0.23335,0.42527,0.098509,1.3757,0.15415,0.52401,-0.2684,0.27016,0.19749,0.24858,0.23211,0.30058,0.14137,0.19837,0.17225,0
1003.7,62.071,58.968,11.795,18.704,4.1237,-4.1236,422.38,8.6182,6.9026,5.0177,2.633,2.3175,-2.3161,19.002,0.98643,0.7818,0.55583,37.547,0.099187,-0.09893,0.32598,0.096046,0.51265,-0.090302,0.4221,0.22355,0.42219,0.093478,1.3791,0.14597,0.51587,-0.25467,0.27501,0.18739,0.25468,0.22004,0.30377,0.13427,0.20675,0.16355,0
795.72,72.561,71.415,10.345,21.194,3.9393,-3.9245,408.2,15.183,14.391,4.7148,5.3298,2.3861,-2.3917,15.581,1.1194,0.9754,0.52287,23.757,0.088272,-0.088015,0.28752,0.15164,0.5282,-0.094788,0.43736,0.30025,0.43629,0.12101,1.3235,0.22718,0.56125,-0.33841,0.24079,0.24957,0.22842,0.2724,0.2663,0.19477,0.13815,0.22715,0
795.83,72.709,71.564,10.325,21.081,3.9485,-3.913,396.2,19.807,19.118,6.1629,5.939,2.4321,-2.4228,16.082,1.3724,1.169,0.62685,18.466,0.10542,-0.10525,0.31524,0.10172,0.47178,-0.059702,0.41477,0.20271,0.41447,0.078771,1.367,0.15009,0.49657,-0.22196,0.28629,0.16384,0.27904,0.17751,0.30201,0.12927,0.21842,0.14953,0
798.28,63.825,62.802,9.3513,24.03,4.153,-4.1143,396.13,20.026,19.531,6.566,5.6638,2.4084,-2.3969,16.165,1.5314,1.2818,0.73264,37.193,0.10628,-0.1065,0.40752,-0.01427,0.38356,0.009979,0.39371,-0.021469,0.39339,-0.012008,1.5055,-0.023991,0.38117,0.033168,0.41256,-0.024428,0.41403,-0.027041,0.40979,-0.018688,0.42245,-0.0221,0
792.63,80.196,79.924,16.744,87.083,4.739,-4.9244,452.24,49.505,48.391,10.207,139.33,2.7087,-2.8185,14.08,1.107,0.14382,1.0966,522.5,0.09294,-0.089607,-0.004813,0.57773,0.90845,-0.3596,0.57244,1.0239,0.56012,0.45687,0.85579,0.90753,1.0313,-1.2758,-0.17665,0.94058,-0.22118,1.0231,-0.082591,0.73741,-0.56664,0.85885,0
802.7,105.75,102.6,10.725,41.314,4.5258,-4.5076,402.51,20.021,19.335,4.8234,7.9573,2.3388,-2.3367,15.902,1.4907,1.3034,0.60906,36.786,0.097942,-0.098178,0.26663,0.16925,0.52898,-0.099827,0.43326,0.32851,0.43243,0.13128,1.293,0.25275,0.56907,-0.36982,0.21868,0.27298,0.20666,0.29594,0.24475,0.21524,0.10566,0.24903,0
794.15,105.15,102.8,10.534,43.188,4.423,-4.4082,408.08,21.046,20.577,4.1427,6.9666,2.1805,-2.1818,15.51,1.3472,1.1933,0.54284,28.302,0.08982,-0.08985,0.25458,0.19328,0.5531,-0.11323,0.44492,0.36752,0.44377,0.14944,1.2734,0.2907,0.59949,-0.42135,0.20026,0.31105,0.18671,0.33696,0.22978,0.24553,0.071402,0.28383,0
818.65,103.71,99.545,11.518,40.538,4.5221,-4.5362,421.18,25.058,24.229,6.3517,6.0499,2.5361,-2.5333,15.517,1.4659,1.3019,0.61172,37.14,0.10586,-0.1061,0.28073,0.17153,0.55493,-0.1078,0.45065,0.33432,0.44967,0.13727,1.3122,0.25899,0.59136,-0.38403,0.22766,0.28325,0.21348,0.30962,0.25665,0.22072,0.11151,0.25747,0
834.92,76.584,73.132,10.397,22.974,4.511,-4.4883,465.57,32.091,30.53,7.9245,35.54,2.4674,-2.4583,14.378,1.3181,1.0893,0.72559,223.36,0.097616,-0.097914,0.32671,0.16628,0.60478,-0.11532,0.49288,0.32297,0.49137,0.14014,1.3786,0.25762,0.63419,-0.38768,0.26731,0.28557,0.25004,0.31634,0.29996,0.21824,0.15207,0.25809,1
835.04,76.558,73.103,10.411,23.015,4.4858,-4.459,424.45,15.909,14.315,6.1406,4.5739,2.865,-2.8774,15.718,1.0681,0.87042,0.56148,19.377,0.10082,-0.10106,0.27869,0.17451,0.55898,-0.11147,0.45162,0.34129,0.45042,0.1412,1.3081,0.26445,0.59596,-0.39436,0.22251,0.29082,0.20718,0.31885,0.2532,0.22563,0.10383,0.26393,1
872.71,45.291,40.732,11.985,16.153,4.4666,-4.4867,452.19,33.919,32.751,8.7939,21.838,2.5266,-2.4787,15.514,1.3022,0.98582,0.91876,111.69,0.096207,-0.098185,0.6953,-0.27816,0.22955,0.19441,0.4206,-0.51518,0.42068,-0.23319,1.9563,-0.43891,0.18326,0.64428,0.79293,-0.47452,0.82148,-0.52519,0.73908,-0.36347,0.98499,-0.4294,1
1025.7,106.6,105.27,13.712,37.55,4.7164,-4.7369,430.13,21.523,22.101,5.6337,5.6726,2.4808,-2.4562,19.069,1.6486,1.4493,0.69666,87.355,0.10199,-0.10299,0.32941,0.098196,0.52963,-0.10109,0.42757,0.23406,0.42806,0.10024,1.3831,0.15084,0.52863,-0.27335,0.27011,0.20111,0.24411,0.24187,0.30378,0.14075,0.20044,0.17272,0
1019.2,102.93,100.86,13.115,35.989,4.6688,-4.659,431.63,12.324,10.98,5.3301,4.5482,2.4631,-2.4614,18.867,1.5617,1.3843,0.66341,78.031,0.10526,-0.10597,0.33742,0.092439,0.52459,-0.09387,0.4301,0.21802,0.43028,0.093646,1.395,0.14212,0.52421,-0.25533,0.28274,0.18786,0.25902,0.22517,0.31377,0.13195,0.21713,0.16174,0
1023.7,103.33,100.78,13.555,36.792,4.74,-4.721,474.4,56.046,58.132,8.5353,12.024,2.5703,-2.5425,17.413,2.0563,1.6999,1.002,125.43,0.10664,-0.10682,0.27765,0.19219,0.65681,-0.18504,0.46783,0.39116,0.47081,0.18978,1.2873,0.31486,0.66126,-0.51769,0.17164,0.38091,0.12828,0.45042,0.23149,0.27098,0.034997,0.33068,0
897.28,68.168,65.308,15.571,18.59,6.781,-6.7606,460.82,22.948,21.228,8.1446,7.4297,3.0799,-3.0634,15.598,1.2584,1.1295,0.61068,33.563,0.12296,-0.1222,0.3555,0.11736,0.57204,-0.099282,0.47245,0.23606,0.47288,0.10876,1.4185,0.18643,0.58222,-0.2972,0.3011,0.21873,0.28179,0.25088,0.33147,0.16045,0.21786,0.19365,0
897.3,68.133,65.249,15.555,18.631,6.8224,-6.7727,423.41,25.812,25.971,6.6985,6.3213,2.4617,-2.4575,17,1.4651,1.1838,0.71652,101.37,0.13475,-0.13447,0.35875,0.072047,0.4804,-0.050872,0.4296,0.14696,0.43016,0.060878,1.4297,0.10916,0.49206,-0.16808,0.33301,0.12379,0.32548,0.13723,0.34719,0.094532,0.28305,0.11187,0
941.08,50.087,48.795,15.168,13.596,6.0855,-6.1374,460.93,38.308,37.867,7.6863,13.009,2.3369,-2.3228,16.455,1.7032,1.3793,0.93244,143.85,0.12063,-0.12131,0.53962,-0.083592,0.37306,0.082533,0.45402,-0.19015,0.45581,-0.083218,1.7081,-0.12895,0.37276,0.2258,0.5863,-0.16612,0.6055,-0.19664,0.55983,-0.11788,0.64603,-0.14438,0
817.66,78.463,75.993,13.575,27.881,5.4799,-5.4249,402.08,16.035,14.514,3.9334,3.7294,2.1214,-2.126,16.251,1.1967,0.994,0.59666,25.61,0.11074,-0.11035,0.27329,0.15748,0.53017,-0.10389,0.43051,0.33722,0.42854,0.12894,1.3053,0.23209,0.56065,-0.35829,0.2215,0.26403,0.20719,0.29005,0.2499,0.20414,0.11362,0.23972,0
755.98,67.502,64.579,16.305,78.807,6.0361,-5.9944,468.45,41.864,40.431,11.145,38.172,3.5414,-3.5198,12.945,0.97375,0.49403,0.79151,407.17,0.057537,-0.057507,0.68682,-0.2897,0.25226,0.16258,0.4085,-0.46823,0.40674,-0.21742,1.9474,-0.46231,0.17919,0.61427,0.76116,-0.45346,0.77845,-0.48674,0.72074,-0.36254,0.95196,-0.41644,0
1151,250.45,272.27,31.078,245.45,10.757,-10.88,495.23,69.16,69.024,12.825,41.13,3.6088,-3.6299,18.468,1.8195,0.99213,1.4856,760.9,0.10185,-0.1032,0.29725,0.17127,0.72313,-0.25733,0.46287,0.4365,0.4668,0.2142,1.3186,0.28219,0.68789,-0.60209,0.12001,0.44111,0.007046,0.60196,0.22324,0.27698,0.00987,0.3473,0
999.45,64.247,62.832,18.098,24.718,5.8459,-5.9353,444.98,41.367,42.355,6.5862,6.5213,2.3208,-2.2796,18.111,1.9242,1.7445,0.82015,103.9,0.12644,-0.12801,0.51938,-0.074266,0.36052,0.084367,0.44317,-0.16702,0.44501,-0.079258,1.6817,-0.11967,0.36567,0.21568,0.56963,-0.15868,0.59387,-0.19555,0.54077,-0.10859,0.62203,-0.13439,0
1053.2,346.16,391.28,35.367,43.351,15.156,-16.07,435.37,40.896,40.145,11.89,26.011,3.1758,-3.2504,19.011,4.3826,2.5452,3.3864,205.92,0.19784,-0.20941,0.38769,0.044146,0.5035,-0.070719,0.43022,0.13458,0.43207,0.05798,1.4734,0.067968,0.49206,-0.16311,0.33817,0.11954,0.30639,0.16545,0.36708,0.073522,0.30966,0.092851,0
1917.2,648.7,581.77,40.587,70.636,21.004,-21.087,552.43,111.37,121.93,16.363,19.294,4.8548,-4.84,27.569,8.0885,6.7976,3.5606,240.76,0.21889,-0.22049,0.44098,0.057881,0.62484,-0.12544,0.49182,0.16122,0.49706,0.090988,1.543,0.1069,0.59899,-0.2749,0.34094,0.19902,0.26278,0.31181,0.39978,0.11055,0.31357,0.13943,0
1042,100.79,97.82,14.297,28.883,5.6101,-5.6495,472.34,19.475,18.918,3.8546,6.0657,2.1369,-2.1522,17.614,1.1058,0.95541,0.51106,53.817,0.09828,-0.098424,0.28117,0.18345,0.65652,-0.19025,0.46502,0.40031,0.46542,0.18777,1.2982,0.29351,0.6538,-0.51206,0.16954,0.37673,0.12002,0.4541,0.23301,0.26323,0.039519,0.32319,0
1068.2,91.768,89.781,15.49,32.158,5.7497,-5.7786,484.71,15.805,14.661,6.0368,4.9579,2.5751,-2.548,17.609,1.0859,0.92518,0.56865,77.764,0.10319,-0.10364,0.32657,0.14798,0.64319,-0.16832,0.47453,0.32676,0.47467,0.15865,1.3666,0.24074,0.63409,-0.43339,0.22428,0.3188,0.17436,0.39443,0.28288,0.21751,0.12043,0.26894,0
1066.8,93.161,90.987,15.421,30.138,6.0177,-6.0016,492.46,20.671,18.913,8.213,6.065,3.0789,-3.117,17.317,1.1285,0.92815,0.61366,55.88,0.11152,-0.11117,0.32548,0.15637,0.65846,-0.17619,0.48179,0.33558,0.48202,0.16674,1.3619,0.25732,0.64947,-0.45516,0.21906,0.33482,0.16773,0.41285,0.27999,0.22911,0.10912,0.28311,0
818.05,83.407,80.162,14.251,23.335,4.3915,-4.3431,447.46,27.077,25.433,7.137,8.2582,2.465,-2.4993,14.633,1.3073,1.1516,0.60564,97.316,0.09586,-0.095313,0.30816,0.17039,0.57574,-0.10385,0.47516,0.30036,0.47515,0.13424,1.3465,0.26709,0.61419,-0.37645,0.25764,0.27771,0.24468,0.302,0.28515,0.21783,0.14293,0.25316,0
824.15,105.16,82.756,15.043,18.305,4.6492,-4.7809,442.45,42,32.936,7.9589,5.1471,2.5627,-2.7042,14.849,0.87195,0.31452,0.58523,47.248,0.0905,-0.091014,0.15042,0.35025,0.66649,-0.18559,0.50031,0.69649,0.49037,0.25933,1.1287,0.51466,0.76507,-0.74127,0.062003,0.54824,0.041607,0.58845,0.10962,0.439,-0.16608,0.50118,0
654.59,69.048,68.641,10.697,46.978,3.0544,-3.0521,453.37,38.008,36.646,7.897,32.641,2.2007,-2.2061,11.537,0.45472,0.2985,0.32878,298.34,0.05692,-0.056907,0.12453,0.50237,0.77544,-0.2088,0.61868,0.73381,0.59311,0.32609,1.0598,0.78661,0.95598,-0.96525,0.03849,0.71741,0.02341,0.7501,0.084381,0.60067,-0.26475,0.66002,0
692.29,43.392,41.403,12.487,28.467,3.5934,-3.6128,396.85,23.587,22.446,7.6049,19.409,2.0091,-2.0249,13.963,0.54947,0.26926,0.47849,252.32,0.084639,-0.085019,0.12222,0.39637,0.65964,-0.1816,0.51073,0.68994,0.49582,0.26879,1.0815,0.58603,0.78811,-0.78182,0.045967,0.57945,0.03155,0.60948,0.086918,0.47934,-0.20046,0.53445,0
614.93,59.494,59.553,8.8887,93.085,2.4853,-2.4952,419.63,33.397,32.438,5.8952,87.373,1.5689,-1.5671,11.716,0.4682,0.35186,0.3066,317.72,0.047199,-0.047314,0.11825,0.48981,0.72551,-0.1867,0.59839,0.73128,0.56891,0.30485,1.0631,0.7463,0.9158,-0.9166,0.04359,0.68298,0.031548,0.70992,0.083228,0.5787,-0.2438,0.62712,0
849.03,79.908,84.167,15.004,31.612,5.6995,-5.5737,394.5,19.068,18.38,7.3686,5.3994,2.4159,-2.3786,17.235,1.5495,1.1501,0.93665,71.084,0.13515,-0.13504,0.354,0.047794,0.43503,-0.034159,0.40103,0.10411,0.40132,0.040533,1.424,0.070671,0.44249,-0.11177,0.33674,0.082301,0.33159,0.091403,0.34627,0.062751,0.30358,0.07434,0
840.56,114.79,113.83,14.876,46.198,5.6445,-5.5515,393.2,18.493,17.592,6.1434,5.9028,2.5452,-2.535,17.05,1.7356,1.5251,0.75252,44.801,0.12982,-0.12933,0.27274,0.14331,0.50769,-0.094571,0.4148,0.29935,0.41469,0.11788,1.3031,0.21281,0.5358,-0.32853,0.22473,0.24222,0.2112,0.26695,0.251,0.18668,0.12663,0.21912,0
844.58,120.05,117.8,15.171,52.648,5.723,-5.6426,410.39,20.18,19.401,7.2232,6.2004,2.6833,-2.6626,16.434,1.9664,1.7154,0.81379,62.856,0.12675,-0.12647,0.3235,0.10286,0.49194,-0.067588,0.42538,0.20799,0.42544,0.084513,1.3772,0.15456,0.51232,-0.23569,0.28914,0.17379,0.27948,0.1915,0.30793,0.13397,0.21877,0.15719,0
899.87,108.1,107.33,14.276,33.533,5.9868,-5.9266,405.61,17.246,16.458,5.3772,5.5414,2.4043,-2.4091,17.705,1.5517,1.3547,0.68301,56.733,0.1193,-0.11896,0.27775,0.1421,0.53097,-0.11133,0.41965,0.31162,0.41982,0.12676,1.3082,0.21363,0.54801,-0.34834,0.21843,0.25647,0.19868,0.29041,0.25138,0.19117,0.11862,0.22873,0
899.95,108.24,107.45,14.285,32.491,5.9961,-5.9354,405.72,17.287,16.761,4.7711,5.4111,2.2484,-2.2546,17.715,1.6883,1.4875,0.68942,66.568,0.11586,-0.11547,0.30119,0.11616,0.50752,-0.090413,0.41713,0.25556,0.41729,0.10329,1.3439,0.17414,0.52179,-0.28396,0.25313,0.20907,0.23724,0.23645,0.27981,0.15606,0.1716,0.18659,0
900.6,107.82,106.99,14.449,33.102,6.0086,-5.964,412.58,22.482,22.468,5.8003,6.1259,2.3947,-2.3984,17.468,1.8705,1.6151,0.74599,76.15,0.12055,-0.12035,0.33707,0.083847,0.48414,-0.063621,0.42056,0.18521,0.42076,0.073615,1.3988,0.1247,0.49534,-0.20261,0.30363,0.14919,0.29291,0.16784,0.32215,0.11201,0.24492,0.13357,0
815.51,49.125,47.135,9.8349,13.411,3.9371,-3.8622,455.41,11.224,9.5013,5.6368,3.5612,2.6228,-2.6194,14.32,0.68327,0.53908,0.38831,32.513,0.091589,-0.091049,0.31117,0.1769,0.59183,-0.11087,0.48542,0.31174,0.4843,0.14047,1.3505,0.27773,0.62906,-0.39205,0.25788,0.28903,0.24394,0.31478,0.28705,0.22621,0.13827,0.26371,0
838.1,90.045,89.09,13.86,39.417,5.2275,-5.2093,437.19,28.02,26.492,5.844,6.8252,2.2969,-2.309,15.326,1.1736,0.89878,0.71057,56.487,0.099987,-0.10009,0.23699,0.23882,0.63705,-0.16587,0.47503,0.46947,0.47354,0.20039,1.2416,0.36671,0.678,-0.55492,0.15279,0.40883,0.12806,0.45303,0.19915,0.31281,-0.012014,0.36931,0
839.08,92.41,91.785,13.65,34.519,5.1664,-5.1575,400.66,40.099,40.885,5.8429,7.1844,2.296,-2.3032,16.821,1.7317,1.5879,0.71224,51.745,0.10798,-0.10809,0.2106,0.22653,0.59037,-0.15748,0.43397,0.46802,0.43504,0.1901,1.2075,0.34152,0.62892,-0.52625,0.13085,0.3877,0.10747,0.42954,0.17477,0.29666,-0.025545,0.3503,0
883.27,74.639,71.307,14.324,35.068,5.5512,-5.6028,405.97,11.36,10.225,4.56,2.9251,2.2337,-2.2772,17.386,1.1421,0.86477,0.72384,53.207,0.11352,-0.11323,0.28426,0.13742,0.52062,-0.10101,0.42101,0.29664,0.42063,0.1182,1.3195,0.20476,0.54047,-0.32547,0.23252,0.23965,0.21654,0.2676,0.26116,0.18158,0.13686,0.21574,0
865.28,119.17,119.05,14.345,42.163,6.152,-6.1373,395.56,27.765,27.401,5.1497,9.4886,2.25,-2.251,17.527,2.2866,2.0716,0.86989,89.226,0.12994,-0.1301,0.33657,0.068163,0.45842,-0.053484,0.40456,0.1631,0.40487,0.060842,1.4001,0.099027,0.46622,-0.16683,0.3084,0.12279,0.29917,0.13879,0.32405,0.091608,0.26032,0.10973,0
865.43,119.23,119.11,14.486,43.16,6.1845,-6.1722,375.45,22.366,22.68,4.8198,5.6675,2.1201,-2.1185,18.415,2.0827,1.8417,0.92226,89.616,0.13531,-0.1352,0.2751,0.11593,0.47654,-0.086027,0.3906,0.26997,0.39088,0.10096,1.3101,0.1686,0.49351,-0.27881,0.22965,0.20538,0.21519,0.23071,0.25476,0.15459,0.14881,0.18387,0
865.68,118.95,118.8,14.318,42.032,6.1364,-6.114,444.71,27.788,26.393,6.3204,9.7391,2.573,-2.5694,15.527,1.4931,1.2994,0.71698,49.848,0.1144,-0.11414,0.28061,0.18954,0.61042,-0.14107,0.47001,0.37602,0.4699,0.16516,1.3052,0.29499,0.6376,-0.45563,0.20642,0.33559,0.18289,0.37683,0.24743,0.25263,0.074108,0.30063,0
1056.7,121.87,118.92,16.48,45.3,6.1301,-6.0683,462.97,21.372,20.537,4.9074,7.2966,2.3662,-2.367,18.214,1.4515,1.2183,0.72162,111.19,0.11271,-0.11222,0.29511,0.15889,0.62301,-0.16699,0.45447,0.35785,0.45496,0.16424,1.3231,0.25179,0.62003,-0.4487,0.19571,0.33009,0.15101,0.39982,0.25218,0.22951,0.08322,0.28202,0
1057.1,120.88,118,16.516,44.577,6.151,-6.1008,479.09,29.447,29.111,7.2979,8.6022,2.8004,-2.7799,17.629,1.4685,1.2033,0.7943,92.847,0.12443,-0.12421,0.28719,0.18158,0.66474,-0.19383,0.4689,0.39878,0.46976,0.18919,1.3063,0.29235,0.65999,-0.5171,0.17099,0.3804,0.11781,0.46289,0.23709,0.26339,0.042673,0.32403,0
1017.4,101.26,97.028,18.093,33.738,6.9354,-6.8741,444.74,19.976,18.277,7.027,5.7423,2.6906,-2.6989,18.28,1.3954,0.98251,0.85239,90.256,0.12698,-0.12581,0.34825,0.094997,0.5371,-0.093177,0.4431,0.21768,0.44358,0.094686,1.4112,0.14683,0.53859,-0.25828,0.29431,0.19004,0.27174,0.22585,0.3248,0.13456,0.22686,0.16447,0
973.65,88.384,87.783,17.009,29.965,5.5789,-5.5264,472.51,15.567,13.8,6.5986,5.6893,2.6324,-2.6873,16.464,1.128,0.89724,0.71757,26.96,0.1114,-0.11091,0.33991,0.13633,0.60814,-0.13109,0.4764,0.28371,0.47665,0.13423,1.3913,0.21893,0.61123,-0.36582,0.26525,0.26917,0.23468,0.31799,0.30745,0.19174,0.16838,0.23398,0
912.55,99.681,97.261,12.3,30.648,4.8153,-4.8418,411.23,17.179,15.978,5.1443,5.2158,2.3918,-2.4179,17.715,1.395,1.1683,0.67676,63.395,0.10546,-0.1059,0.27491,0.14936,0.53977,-0.11604,0.42409,0.32763,0.42413,0.13335,1.3038,0.22475,0.55929,-0.36722,0.21182,0.27042,0.19095,0.30619,0.2467,0.20146,0.10698,0.24088,0
921.63,101.64,99.212,13.381,32.255,4.8155,-4.8433,405.22,15.584,14.928,4.0574,4.7021,2.1676,-2.1501,18.154,1.4576,1.2056,0.72606,54.501,0.10298,-0.10355,0.27545,0.14079,0.52695,-0.11096,0.41617,0.31515,0.41623,0.12655,1.3056,0.21069,0.54436,-0.34817,0.21493,0.25637,0.19464,0.291,0.24843,0.19044,0.11594,0.22805,0
938.16,115.43,106.56,16.927,21.212,6.4185,-6.6767,442.13,43.103,40.14,9.6932,18.215,2.7762,-2.8365,17.003,1.7799,1.3146,1.1057,142.62,0.12904,-0.13086,0.28561,0.16607,0.59205,-0.14052,0.44979,0.35958,0.45169,0.15444,1.315,0.2573,0.60758,-0.42362,0.2068,0.31187,0.17814,0.35926,0.25072,0.22806,0.089585,0.27497,0
844.92,86.186,84.138,12.689,37.673,5.2758,-5.252,430.39,26.413,25.938,6.7976,10.314,2.379,-2.3747,15.714,1.4219,1.2692,0.65133,52.598,0.11225,-0.11253,0.29624,0.15875,0.55909,-0.10772,0.4524,0.29869,0.45316,0.1315,1.3295,0.24716,0.58754,-0.36462,0.24242,0.26865,0.22708,0.29635,0.27202,0.2067,0.13329,0.24337,0
865.35,100.48,103.03,14.735,31.392,5.0416,-4.9576,431.41,22,20.626,7.5607,5.5328,2.5418,-2.5273,16.036,1.5313,1.2422,0.83407,50.065,0.11218,-0.1121,0.34216,0.10318,0.52468,-0.079882,0.44506,0.21637,0.44516,0.091639,1.4031,0.15802,0.53788,-0.25194,0.29952,0.18549,0.2856,0.20945,0.32313,0.1386,0.22705,0.16568,0
874.51,52.51,49.718,14.426,28.346,5.1904,-5.14,479.3,20.326,18.56,8.0619,8.4633,2.8767,-2.8755,14.598,0.65664,0.38877,0.5125,119.51,0.10001,-0.099805,0.2238,0.29218,0.72993,-0.21856,0.51464,0.53172,0.51364,0.25341,1.2032,0.47121,0.77014,-0.69659,0.11111,0.51283,0.075778,0.57408,0.17359,0.38728,-0.092826,0.46111,0
871.72,51.974,49.252,14.26,28.28,5.2295,-5.1755,469.13,19.935,18.102,8.4814,7.1348,3.0453,-2.9998,14.868,0.67896,0.42711,0.51437,120.8,0.10805,-0.10793,0.2085,0.299,0.72327,-0.22091,0.50565,0.54687,0.50489,0.25772,1.1808,0.47967,0.76599,-0.70901,0.09519,0.52201,0.060138,0.58305,0.15795,0.39527,-0.11316,0.46998,0
800.52,94.591,90.565,13.01,31.508,4.7028,-4.6655,449.76,27.295,23.973,5.2453,6.513,2.3996,-2.404,14.203,1.062,0.88279,0.54457,74.035,0.092021,-0.091945,0.25656,0.24123,0.6202,-0.13467,0.49957,0.4696,0.49311,0.18981,1.2726,0.36947,0.69188,-0.53726,0.18278,0.3967,0.16368,0.43234,0.2228,0.31009,0.020504,0.3603,0
838.82,100.81,96.251,11.05,34.966,4.5677,-4.5067,393.66,16.099,15.016,5.6163,5.3527,2.4004,-2.3831,17.018,1.6807,1.4452,0.6902,75.879,0.10727,-0.10679,0.31,0.099736,0.46816,-0.061607,0.40849,0.20703,0.40813,0.079258,1.3598,0.1464,0.49013,-0.22217,0.2797,0.1639,0.27173,0.17882,0.29621,0.12806,0.21236,0.14909,0
835.97,99.223,94.525,11.059,34.13,4.5652,-4.5058,387.84,16.525,14.638,6.8603,4.7768,2.8885,-2.8809,17.204,1.5482,1.2905,0.7377,62.494,0.12467,-0.1244,0.26661,0.145,0.49873,-0.091433,0.41018,0.30638,0.40947,0.11641,1.2965,0.21233,0.52962,-0.32564,0.22121,0.24019,0.209,0.26281,0.246,0.18691,0.12292,0.21816,0
613.56,97.088,102.16,8.9853,18.674,3.8339,-3.8146,333.36,23.962,23.736,5.3979,8.9823,2.0618,-2.0383,14.723,2.0199,1.9048,0.75773,47.043,0.1114,-0.11171,0.25807,0.12266,0.41122,-0.046735,0.37313,0.23071,0.37221,0.077792,1.2903,0.17227,0.46096,-0.2347,0.23752,0.17501,0.23391,0.18302,0.24835,0.14684,0.16492,0.15973,0
613.84,97.206,102.27,9.069,18.665,3.8666,-3.8443,338.11,18.254,17.971,4.5942,4.2199,2.2182,-2.2087,14.458,1.5858,1.5182,0.55129,40.294,0.099722,-0.099752,0.23314,0.17094,0.44722,-0.065519,0.39556,0.31731,0.39237,0.10873,1.2543,0.24138,0.51617,-0.32758,0.20434,0.2442,0.19928,0.25543,0.21954,0.20475,0.10293,0.22299,0
613.58,97.11,102.18,9.0068,18.654,3.8557,-3.8428,354.29,26.645,26.125,6.2865,12.089,2.1429,-2.1317,13.868,2.0155,1.9507,0.74473,118.56,0.1009,-0.10122,0.28515,0.11264,0.43154,-0.04637,0.3922,0.20915,0.39127,0.074038,1.3267,0.16126,0.47383,-0.21988,0.26476,0.1635,0.26102,0.17166,0.27557,0.13598,0.19631,0.14982,0
928.72,92.68,90.825,17.187,39.973,5.9181,-5.9434,449.42,19.477,18.439,5.6339,6.2969,2.3851,-2.443,16.511,1.2353,0.94535,0.75488,44.862,0.11338,-0.1132,0.29223,0.16925,0.60188,-0.14046,0.46139,0.34956,0.46154,0.15549,1.322,0.26456,0.61831,-0.42607,0.21525,0.31362,0.18816,0.35903,0.25814,0.23078,0.095688,0.2778,0
929.3,93.477,91.726,17.184,39.724,5.9565,-5.9953,413.92,20.032,19.154,6.7501,8.0219,2.3747,-2.4031,17.959,1.5671,1.2258,0.92939,135.05,0.13,-0.12988,0.30551,0.11666,0.52138,-0.099042,0.42199,0.26442,0.42231,0.10841,1.3495,0.17596,0.53151,-0.29678,0.25076,0.21844,0.23102,0.25127,0.28132,0.15991,0.1682,0.19292,0
800.97,52.719,49.881,9.7188,12.492,3.7494,-3.6859,424.83,22.501,21.23,5.2022,5.8931,2.5179,-2.4249,15.083,0.62753,0.48463,0.36215,42.293,0.085354,-0.08562,0.13482,0.36206,0.68376,-0.20654,0.49335,0.67436,0.4864,0.275,1.0928,0.54546,0.77376,-0.77638,0.038165,0.57315,0.015011,0.61748,0.090686,0.45586,-0.20144,0.525,0
798.95,64.398,64.68,9.8401,12.802,3.9433,-3.8519,462.83,21.323,19.806,5.5832,4.1923,2.778,-2.6585,13.794,0.63676,0.48758,0.3455,29.19,0.076456,-0.076607,0.21577,0.30921,0.69517,-0.18454,0.52281,0.54102,0.51771,0.24147,1.2019,0.48441,0.769,-0.6795,0.12529,0.50148,0.10235,0.54439,0.17436,0.3945,-0.081755,0.45715,0
796.21,56.101,52.864,9.1919,12.566,3.6728,-3.5682,428.43,23.608,22.339,5.1585,5.308,2.4447,-2.3531,14.864,0.6091,0.48512,0.33532,42.098,0.084251,-0.08406,0.13384,0.36996,0.68783,-0.20548,0.49988,0.67652,0.4923,0.27732,1.0905,0.55858,0.78331,-0.78567,0.038737,0.58027,0.016533,0.62328,0.090327,0.46367,-0.20445,0.53202,0
1052.6,121.93,119.22,16.531,50.325,6.3079,-6.2712,426.61,17.756,16.788,5.3285,5.9781,2.4211,-2.4169,19.692,1.6651,1.4269,0.77824,68.626,0.13057,-0.13031,0.29114,0.12875,0.55807,-0.13662,0.42027,0.31528,0.42063,0.1337,1.325,0.197,0.55501,-0.36526,0.2096,0.2687,0.17257,0.32628,0.25598,0.18639,0.11851,0.22922,0
1054.1,121.31,118.62,16.568,50.158,6.3231,-6.3064,427.2,18.577,17.909,5.4056,6.2447,2.4135,-2.4069,19.708,1.7752,1.5081,0.82161,71.302,0.13006,-0.12983,0.307,0.11408,0.54479,-0.12241,0.42126,0.28249,0.42169,0.11909,1.3499,0.17403,0.54137,-0.32532,0.23373,0.23932,0.20009,0.29145,0.27545,0.16556,0.15309,0.20379,0
911.11,101.76,99.844,14.697,43.829,5.6199,-5.6139,395.86,15.566,14.428,5.8511,6.233,2.4805,-2.4798,18.376,1.5353,1.3146,0.71067,54.088,0.12905,-0.12905,0.27708,0.13038,0.50802,-0.10101,0.40715,0.29229,0.40729,0.11559,1.3093,0.19376,0.52423,-0.31778,0.22357,0.23397,0.206,0.26427,0.25326,0.17489,0.13211,0.209,0
910.7,101.84,99.96,14.748,44.212,5.705,-5.7103,388.5,16.865,16.326,5.2918,5.905,2.367,-2.3723,18.725,1.6384,1.4,0.74837,60.133,0.13278,-0.13281,0.27782,0.12153,0.49291,-0.093995,0.39898,0.27742,0.39919,0.10769,1.3117,0.17929,0.50819,-0.29617,0.22796,0.21808,0.21158,0.24631,0.25562,0.16303,0.14275,0.19477,0
884.85,72.338,69.916,14.571,28.239,5.57,-5.6291,456.57,38.431,37.598,7.6685,71.97,2.2343,-2.2317,15.613,1.8153,1.4875,0.99325,243.51,0.11581,-0.11628,0.45666,-9.8e-05,0.45609,0.000422,0.45541,0.008135,0.45653,-0.000281,1.5829,-0.003538,0.45629,0.000685,0.45693,-0.000501,0.45707,-0.000715,0.45677,-0.00025,0.45705,-0.000383,0
1021.5,103.29,100.5,11.909,38.943,5.028,-4.9898,387.46,16.679,15.942,4.894,6.1257,2.2271,-2.1992,21.084,1.8394,1.6145,0.76533,81.599,0.12475,-0.12465,0.30115,0.084512,0.47094,-0.084435,0.3857,0.22293,0.38608,0.08495,1.347,0.12377,0.47128,-0.23161,0.25224,0.17041,0.23141,0.20338,0.27996,0.12017,0.1922,0.14711,0
1021.7,103.26,100.48,11.922,38.809,5.0356,-4.9859,384.67,14.172,13.516,4.1163,4.7063,2.1697,-2.1692,21.212,1.5827,1.3952,0.65299,71.34,0.11548,-0.11494,0.2652,0.11697,0.49877,-0.11542,0.38249,0.3049,0.38275,0.1169,1.2939,0.17174,0.50004,-0.31882,0.19851,0.23458,0.17045,0.27916,0.23625,0.16588,0.11541,0.20285,0
1019.7,98.612,95.704,11.799,31.198,4.9524,-4.9371,432.51,40.129,40.219,7.3473,8.4183,2.4181,-2.4123,19.071,2.861,2.6436,0.9029,86.773,0.1236,-0.12361,0.57853,-0.14322,0.29619,0.13775,0.43273,-0.31398,0.43462,-0.14117,1.7717,-0.22495,0.29306,0.38483,0.65702,-0.28316,0.6891,-0.33459,0.61267,-0.20162,0.75887,-0.24604,0
751.94,208,167.11,18.241,28.336,5.6071,-5.8094,378.78,73.215,63.317,7.8677,40.811,1.9389,-2.0108,15.562,1.9599,1.5112,0.86126,47.713,0.1021,-0.10394,0.11855,0.3419,0.54399,-0.11397,0.45248,0.63605,0.44376,0.20636,1.0998,0.47897,0.68531,-0.64367,0.070022,0.48285,0.061615,0.50479,0.095453,0.4075,-0.12217,0.4342,0
805.63,89.019,89.04,14.874,20.62,5.1141,-5.0719,375.09,15.556,14.719,5.2902,3.6779,2.26,-2.243,17.153,1.43,1.2982,0.60128,42.567,0.12387,-0.12363,0.26349,0.13851,0.48772,-0.089751,0.40045,0.29903,0.40002,0.1125,1.2925,0.202,0.51572,-0.31363,0.21877,0.23123,0.20649,0.25371,0.24324,0.17921,0.12436,0.20986,0
964.74,65.493,63.236,12.628,21.27,4.7403,-4.9367,453.55,12.912,11.15,5.9799,4.3783,2.4222,-2.4248,17.004,0.83871,0.47503,0.59778,41.421,0.097012,-0.098125,0.41191,0.043561,0.4828,-0.02779,0.45507,0.078408,0.45525,0.035338,1.5087,0.068366,0.49146,-0.098357,0.39835,0.07249,0.39499,0.079058,0.40572,0.056341,0.36839,0.066016,0
1064,261.46,297.27,24.668,32.006,9.3844,-9.3904,503.89,46.631,48.716,8.7916,6.2174,2.9873,-3.0091,16.703,2.4495,1.5389,1.8779,64.011,0.11695,-0.11719,0.39685,0.10018,0.62955,-0.1302,0.49647,0.21694,0.49804,0.11668,1.4731,0.17209,0.61736,-0.32416,0.31125,0.23791,0.26426,0.30808,0.36039,0.15558,0.24276,0.19356,0
841.27,150.87,145.05,12.692,40.757,5.2472,-5.2744,451.01,65.529,63.46,8.3909,9.068,3.0701,-3.0914,14.874,1.1461,0.92588,0.66854,87.219,0.10812,-0.10823,0.10528,0.41094,0.76462,-0.25534,0.5138,0.74847,0.51285,0.32774,1.0345,0.64031,0.85197,-0.92008,-0.019712,0.67897,-0.053249,0.74285,0.04852,0.52915,-0.29715,0.61599,0
786.28,77.876,77.367,10.29,29.215,4.1063,-4.0423,422.7,32.449,32.508,8.3303,12.291,2.6048,-2.5803,14.915,1.3963,1.1955,0.69986,38.982,0.10196,-0.10203,0.28948,0.16944,0.55969,-0.10674,0.45621,0.32284,0.45587,0.13539,1.3239,0.25822,0.59548,-0.37823,0.23733,0.2789,0.22349,0.30451,0.26584,0.2176,0.12257,0.25389,0
781.88,88.372,83.622,10.318,29.817,4.0619,-3.9824,388.58,18.899,16.708,5.284,5.322,2.327,-2.3308,16.056,1.263,1.1113,0.50503,21.922,0.099336,-0.098658,0.24044,0.1894,0.51346,-0.09634,0.42851,0.39329,0.42419,0.14127,1.2608,0.27406,0.57496,-0.40598,0.1898,0.30044,0.17788,0.32351,0.21698,0.23921,0.066016,0.27364,0
773.81,80.51,76.857,9.8942,21.404,3.9343,-3.8509,407.54,19.906,17.783,5.7304,6.046,2.5123,-2.5275,15.161,1.1019,0.95108,0.45929,24.602,0.090527,-0.090103,0.25204,0.20072,0.55236,-0.11106,0.45163,0.39993,0.44735,0.15303,1.2733,0.29707,0.60788,-0.43352,0.19706,0.32014,0.18381,0.34549,0.22685,0.25387,0.063911,0.29265,0
1022.7,79.842,77.015,15.793,45.104,6.1204,-6.0778,449.4,11.851,11.15,4.0177,3.8977,2.1916,-2.1918,18.188,1.0832,0.81597,0.67595,90.052,0.11184,-0.11166,0.31143,0.13489,0.58313,-0.13613,0.44648,0.3046,0.44665,0.13608,1.3517,0.21099,0.58301,-0.37069,0.23244,0.27274,0.19849,0.32607,0.27725,0.192,0.13669,0.23527,0
1023.1,79.75,76.895,15.755,44.446,6.1212,-6.0908,427.7,38.412,37.943,5.9308,8.6602,2.2892,-2.2917,19.303,2.3953,2.0934,1.0769,95.21,0.13028,-0.13006,0.46624,-0.037665,0.39976,0.02846,0.42667,-0.077813,0.42839,-0.033296,1.5939,-0.057682,0.39499,0.090795,0.48087,-0.066822,0.48465,-0.073991,0.47286,-0.050346,0.50788,-0.060312,0
971.26,99.579,97.359,16.204,25.187,6.843,-6.804,456.07,22.076,20.317,6.4164,4.0853,2.5947,-2.5863,17.008,1.2069,0.92024,0.71309,57.893,0.11372,-0.114,0.32996,0.12987,0.57343,-0.11312,0.45966,0.27456,0.46014,0.12313,1.3798,0.20431,0.5844,-0.33771,0.26493,0.24858,0.24088,0.28811,0.30111,0.18028,0.1729,0.21805,0
967.06,81.913,78.4,19.856,38.787,6.9843,-6.9711,480.08,35.989,34.911,6.7262,11.09,2.5109,-2.5106,16.185,1.6509,1.427,0.78514,63.814,0.13102,-0.13084,0.37937,0.10414,0.57365,-0.089929,0.48225,0.2015,0.48363,0.097206,1.4535,0.16935,0.58123,-0.2653,0.33029,0.19523,0.3125,0.22476,0.35778,0.14272,0.25639,0.17252,0
935.44,116.42,129.87,18.878,34.373,6.6415,-6.6088,488.28,16.564,15.344,6.4594,5.5336,2.5285,-2.5573,15.296,1.4847,1.2199,0.77747,68.891,0.11513,-0.11483,0.40106,0.092867,0.60553,-0.10883,0.49521,0.21266,0.49544,0.10374,1.4874,0.15156,0.60114,-0.28702,0.33,0.21077,0.29562,0.26358,0.37014,0.1414,0.26464,0.17489,0
934.85,65.239,60.997,18.369,23.847,6.1166,-6.1311,508.23,21.897,19.482,6.6723,4.3144,2.6711,-2.7103,14.713,0.78091,0.53487,0.54739,70.362,0.10298,-0.10295,0.27131,0.25303,0.73909,-0.21545,0.52476,0.48958,0.52405,0.23472,1.2784,0.41047,0.75991,-0.64105,0.15356,0.47176,0.11135,0.54173,0.21941,0.34584,-0.025712,0.41753,0
872,78.846,77.214,11.2,25.358,4.9607,-4.999,388.97,19.76,19.175,6.3444,4.951,2.4547,-2.4273,17.969,1.7441,1.5112,0.79302,77.56,0.12102,-0.12136,0.3541,0.039994,0.41943,-0.026363,0.39299,0.081935,0.39357,0.032665,1.4237,0.059744,0.42697,-0.09064,0.34118,0.066783,0.33771,0.073182,0.34826,0.051733,0.31374,0.060748,0
951.31,60.61,58.823,14.236,22.991,4.9039,-4.802,377.95,28.179,27.326,8.0719,15.708,2.2601,-2.2488,20.192,1.2783,0.85993,0.93525,99.177,0.13108,-0.12883,0.17028,0.21904,0.58129,-0.19242,0.38823,0.54526,0.3891,0.2055,1.1568,0.31963,0.59513,-0.56002,0.065477,0.41207,0.02669,0.47574,0.12437,0.3005,-0.089899,0.36378,0
871.95,78.884,77.254,11.179,25.837,5.0013,-5.0203,393.43,13.087,12.002,4.9752,4.554,2.3311,-2.3313,17.709,1.2186,1.0322,0.59376,53.057,0.11059,-0.11075,0.27457,0.13632,0.50874,-0.099793,0.41016,0.29977,0.40993,0.11723,1.3063,0.20167,0.52891,-0.3231,0.22319,0.23793,0.20734,0.2657,0.2516,0.18026,0.12832,0.21409,0
939.43,51.156,48.839,15.86,21.933,5.9089,-5.8716,424.54,9.2191,6.8004,6.1787,3.0785,2.4958,-2.5648,17.701,0.85745,0.48524,0.66899,55.333,0.13069,-0.13056,0.31459,0.11697,0.53384,-0.10257,0.43143,0.2603,0.43142,0.10974,1.3613,0.17837,0.54149,-0.29917,0.25854,0.22014,0.23782,0.25414,0.29001,0.16053,0.17559,0.1943,0
939.34,51.177,48.864,15.842,22.193,5.9279,-5.9237,431.9,9.0977,6.0206,6.8284,3.0125,2.6504,-2.6825,17.397,0.8319,0.43259,0.67805,54.099,0.13089,-0.13109,0.33765,0.10029,0.52474,-0.087109,0.43776,0.21788,0.43779,0.093643,1.3953,0.15419,0.53175,-0.25539,0.29021,0.18792,0.27283,0.21652,0.31682,0.13734,0.21913,0.16607,0
879.81,121.82,123.85,16.922,50.648,6.621,-6.5995,412.19,24.356,24.412,5.3641,7.3886,2.4189,-2.441,17.019,1.5855,1.299,0.81649,48.206,0.12642,-0.12633,0.26713,0.1649,0.55524,-0.12387,0.4316,0.35057,0.43186,0.14452,1.291,0.24962,0.57867,-0.39881,0.20127,0.29373,0.18015,0.33057,0.23765,0.22054,0.086068,0.26265,0
931.77,119.84,114.66,17.894,44.336,6.7102,-6.6998,418.96,21.559,19.944,7.1574,6.2104,2.9969,-3.0137,17.741,1.6534,1.2788,0.93833,88.002,0.14416,-0.14411,0.26846,0.16151,0.55904,-0.12862,0.43004,0.35318,0.43026,0.14532,1.2933,0.24401,0.57713,-0.39923,0.19941,0.29394,0.17597,0.33406,0.23779,0.21822,0.085798,0.26149,0
929.31,41.452,39.587,11.4,15.699,4.4475,-4.5999,485.99,9.2125,7.3042,5.6054,3.5085,2.3991,-2.4563,15.294,0.53507,0.29645,0.42327,29.277,0.085595,-0.08539,0.31599,0.18251,0.65073,-0.15326,0.49812,0.3466,0.49798,0.16739,1.3503,0.29589,0.66609,-0.45689,0.23395,0.33621,0.20498,0.38446,0.27989,0.24776,0.10492,0.2986,0
925.36,64.563,62.872,11.931,21.946,4.7274,-4.7959,484.62,12.642,11.628,5.0515,4.0654,2.391,-2.3798,15.263,0.77768,0.61741,0.43651,20.853,0.090241,-0.090951,0.32222,0.1755,0.63932,-0.14253,0.49738,0.33024,0.49728,0.15885,1.3608,0.2841,0.65732,-0.43491,0.24592,0.3201,0.21978,0.3642,0.28846,0.23721,0.12221,0.28492,0
941.22,57.982,56.364,12.383,18.451,4.8511,-4.9318,494.66,11.518,9.9732,5.8545,3.4247,2.5412,-2.5609,15.214,0.73076,0.55334,0.43957,21.387,0.08936,-0.090444,0.34819,0.15564,0.63367,-0.1304,0.50356,0.29053,0.50357,0.14293,1.4004,0.25471,0.64728,-0.39058,0.27783,0.28744,0.25299,0.3289,0.31717,0.21165,0.1678,0.25503,0
836.9,105.09,101.71,12.339,38.892,4.8904,-4.8795,408.83,20.241,19.212,6.0942,8.2018,2.4523,-2.4283,16.402,2.1087,1.8873,0.77187,116.54,0.11907,-0.11932,0.39162,0.020561,0.42844,-0.016159,0.41209,0.049392,0.41224,0.018366,1.4805,0.029694,0.43048,-0.049743,0.38348,0.036529,0.38103,0.040859,0.38801,0.027419,0.36869,0.033045,0
837.03,105.02,101.63,12.307,39.998,4.9151,-4.8996,413.94,14.267,13.172,4.6846,4.1386,2.3172,-2.3225,16.137,1.6183,1.4441,0.62491,43.609,0.10521,-0.10524,0.31724,0.11552,0.50373,-0.073991,0.43183,0.23136,0.43136,0.093922,1.3675,0.17372,0.52822,-0.26258,0.27954,0.19367,0.26914,0.21277,0.30012,0.14988,0.20086,0.17542,0
824.15,82.701,80.829,13.803,32.95,4.5608,-4.5952,404.36,16.334,15.297,5.3618,5.138,2.2592,-2.246,16.276,1.1396,0.92172,0.63464,27.989,0.099104,-0.099352,0.27535,0.15657,0.52562,-0.099063,0.43009,0.31602,0.42932,0.12618,1.3058,0.23392,0.55954,-0.35275,0.22548,0.26016,0.21204,0.28483,0.25268,0.20218,0.11915,0.23624,0
857.78,76.089,71.483,12.944,19.961,5.3695,-5.3418,447.29,13.481,12.722,5.5046,3.184,2.5241,-2.5285,15.341,1.286,1.0495,0.61711,20.284,0.1059,-0.10586,0.39563,0.060213,0.4939,-0.039693,0.45509,0.11299,0.45501,0.049226,1.4843,0.093119,0.50548,-0.13689,0.3759,0.10089,0.37042,0.11086,0.38672,0.078022,0.33472,0.091558,0
858.02,75.796,71.232,12.915,20.096,5.3617,-5.3516,441.36,13.118,11.585,6.1296,3.906,2.5585,-2.5903,15.543,1.1983,0.96408,0.61775,19.631,0.10736,-0.10748,0.34863,0.10807,0.52582,-0.071944,0.45559,0.20547,0.45526,0.088799,1.4119,0.16667,0.54623,-0.24674,0.31266,0.18184,0.30257,0.20013,0.3324,0.14033,0.23863,0.16487,0
897.89,133.9,135.1,17.464,42.485,6.494,-6.4228,410.53,42.34,42.114,6.5999,19.399,2.3171,-2.2993,17.488,1.7696,1.5545,0.85746,104.68,0.1411,-0.14065,0.20597,0.228,0.62396,-0.18783,0.4336,0.50711,0.43522,0.20877,1.1989,0.3456,0.64596,-0.57291,0.10394,0.42177,0.068017,0.48282,0.16083,0.31064,-0.057027,0.37348,0
799.7,62.086,61.374,15.081,24.064,5.4482,-5.3577,389.06,13.702,12.304,6.339,4.0716,2.6644,-2.6459,16.438,1.0427,0.70543,0.73919,24.715,0.13688,-0.13654,0.2672,0.15231,0.51372,-0.099321,0.4174,0.31494,0.41688,0.12355,1.2952,0.22564,0.54366,-0.34362,0.21839,0.25324,0.20506,0.2775,0.24516,0.19653,0.11451,0.23028,0
899.49,133.39,134.49,17.519,43.056,6.457,-6.3707,439.35,39.165,38.642,7.4854,15.166,2.5232,-2.5134,16.354,1.725,1.5857,0.78804,80.034,0.1271,-0.1266,0.24915,0.2116,0.63747,-0.17473,0.46038,0.4363,0.4619,0.19396,1.2552,0.33121,0.65767,-0.53218,0.15419,0.39178,0.12068,0.44866,0.20714,0.28842,0.004758,0.34685,0
950.73,102.57,101.97,10.848,33.324,4.4641,-4.4587,446.6,18.181,17.529,5.0063,6.4074,2.4265,-2.3988,16.994,1.2861,1.1674,0.50237,27.267,0.091122,-0.091301,0.29431,0.16021,0.59764,-0.14203,0.45482,0.33949,0.45512,0.15179,1.3248,0.25081,0.60767,-0.41468,0.21543,0.30517,0.18571,0.3541,0.25969,0.2214,0.10174,0.26819,0
951.11,102.7,102.08,10.971,32.742,4.4564,-4.4753,439.93,16.953,16.234,5.3936,5.4466,2.4537,-2.4518,17.259,1.3215,1.1988,0.51536,30.346,0.0995,-0.099908,0.29671,0.15061,0.58103,-0.13273,0.44757,0.32229,0.44786,0.14228,1.3299,0.23442,0.59088,-0.38879,0.22314,0.28612,0.19559,0.33156,0.26439,0.20786,0.11629,0.25164,0
1038.5,71.994,69.398,14.036,24.858,4.8256,-4.7319,465.18,29.539,27.912,7.5284,8.7203,2.7257,-2.7215,17.947,1.8782,1.7734,0.72769,92.766,0.11333,-0.11323,0.50489,-0.038223,0.42977,0.036631,0.46587,-0.098771,0.46653,-0.037626,1.6504,-0.055245,0.42885,0.10243,0.52572,-0.075365,0.53406,-0.088762,0.51397,-0.053747,0.55297,-0.065604,0
1040.8,109.63,89.059,14.452,24.363,4.8056,-4.729,488.5,36.034,29.965,6.707,6.1411,2.5069,-2.5324,17.027,1.3977,1.2218,0.63066,50.49,0.10029,-0.099798,0.232,0.24621,0.63689,-0.15192,0.47782,0.54632,0.48132,0.21054,1.2458,0.36968,0.70404,-0.60729,0.12704,0.45008,0.094655,0.50811,0.1822,0.33707,-0.038941,0.3941,0
1038.6,71.77,69.135,14.083,24.972,4.8508,-4.773,463.46,30.944,29.334,7.1744,7.8828,2.6633,-2.6512,18.036,2.0438,1.9626,0.71142,65.959,0.10978,-0.10958,0.57437,-0.10677,0.35957,0.10748,0.4666,-0.25178,0.46733,-0.10754,1.7603,-0.16361,0.35961,0.29281,0.63653,-0.21544,0.66306,-0.2572,0.60127,-0.15182,0.7124,-0.18602,0
992.21,65.766,61.95,15.68,19.192,5.8649,-5.8654,494.09,15.628,14.487,5.7527,4.9743,2.5265,-2.5264,16.058,0.82847,0.61004,0.50099,16.563,0.10438,-0.1046,0.31321,0.18228,0.65685,-0.16088,0.49552,0.35321,0.49575,0.17263,1.3439,0.29757,0.6693,-0.47177,0.22304,0.34722,0.18923,0.40262,0.27355,0.25196,0.093791,0.30515,0
991.11,66.513,62.595,15.924,19.391,5.9435,-5.9439,484.14,15.758,14.208,6.322,4.6814,2.6096,-2.6243,16.37,0.84558,0.6076,0.52997,25.128,0.10956,-0.10957,0.31011,0.17557,0.6406,-0.15447,0.48569,0.34795,0.48592,0.16592,1.3421,0.28332,0.65271,-0.45339,0.22385,0.33368,0.19164,0.38656,0.27217,0.24239,0.09936,0.29347,0
990.31,61.924,56.467,15.905,13.263,6.0945,-6.0496,492.94,20.318,18.236,6.2921,4.5975,2.7341,-2.7402,16.07,0.75037,0.44376,0.55143,14.804,0.10855,-0.1084,0.242,0.2532,0.71768,-0.22202,0.49515,0.51453,0.49545,0.23894,1.2366,0.40446,0.73569,-0.65307,0.11794,0.48065,0.071744,0.55648,0.18739,0.34938,-0.061535,0.42287,0
820.3,95.728,92.798,13.724,42.864,5.5449,-5.5057,414.52,18.338,17.15,5.3668,6.1443,2.3946,-2.3964,15.796,1.3716,1.0985,0.74722,31.424,0.11119,-0.11127,0.29073,0.15088,0.53054,-0.094051,0.44,0.29767,0.43914,0.12084,1.3278,0.22688,0.5642,-0.3387,0.24338,0.24989,0.23068,0.27336,0.26917,0.19454,0.1413,0.22684,0
820.6,95.971,93.103,13.72,43.16,5.5478,-5.522,424.99,33.453,32.213,6.148,10.834,2.2862,-2.2986,15.469,1.597,1.298,0.86952,82.982,0.1113,-0.11108,0.27106,0.18754,0.56666,-0.11489,0.45535,0.35485,0.45525,0.14874,1.2954,0.2863,0.60937,-0.41735,0.21404,0.30794,0.19914,0.33574,0.24507,0.24073,0.08755,0.28011,0
819.86,95.866,92.966,13.688,43.18,5.5674,-5.5363,407.26,14.903,13.705,5.7097,4.6625,2.5099,-2.5101,16.073,1.4921,1.1962,0.8012,38.15,0.11263,-0.11279,0.30449,0.12532,0.50306,-0.077608,0.42816,0.24822,0.42768,0.099925,1.3489,0.18774,0.53109,-0.28006,0.26582,0.20661,0.2556,0.2256,0.28688,0.1612,0.1811,0.18782,0
914.76,127.94,130.18,15.796,37.626,6.1275,-6.0807,439.62,31.055,30.027,6.6954,15.718,2.5744,-2.5755,16.725,2.62,2.4619,1.0118,130.48,0.12363,-0.12372,0.44928,-0.010569,0.44137,-0.001579,0.43831,-0.004673,0.43919,-0.004359,1.5693,-0.017957,0.43406,0.013789,0.44718,-0.010258,0.4444,-0.006659,0.4487,-0.011107,0.45387,-0.01128,0
912.17,123.98,126.47,15.705,36.19,6.0771,-6.0292,421.67,20.88,20.392,5.4536,6.2927,2.4426,-2.4529,17.247,1.5991,1.3147,0.85431,43.272,0.11968,-0.1196,0.27307,0.16293,0.57574,-0.13846,0.43644,0.3582,0.43683,0.15227,1.2971,0.24969,0.59061,-0.41795,0.19522,0.30767,0.1669,0.35494,0.23858,0.22452,0.079905,0.27084,0
911.68,78.153,79.002,19.119,34.224,5.2113,-5.1956,473.66,21.295,19.179,9.2503,16.542,2.5645,-2.4912,15.401,1.1339,0.57449,0.96648,283.57,0.1206,-0.12095,0.42507,0.053456,0.52395,-0.045556,0.47805,0.10532,0.47847,0.049532,1.5284,0.085583,0.52821,-0.13519,0.40034,0.099482,0.3915,0.11416,0.41418,0.07298,0.36245,0.088111,0
883.22,91.297,89.767,17.063,35.78,6.6587,-6.5753,456.85,16.608,15.662,5.2382,5.9752,2.4534,-2.4634,15.435,1.1374,0.96367,0.5735,37.09,0.1238,-0.12316,0.30578,0.17101,0.60516,-0.12978,0.47633,0.32948,0.47615,0.14994,1.3409,0.26984,0.62799,-0.4125,0.2377,0.30373,0.21584,0.34159,0.27544,0.22816,0.11807,0.27208,0
863.37,82.746,81.83,16.574,30.402,6.2935,-6.2077,459.19,14.408,13.575,4.5975,4.4324,2.2924,-2.3045,15.018,1.0558,0.88978,0.54544,44.218,0.11366,-0.11312,0.32121,0.15977,0.59778,-0.11875,0.48029,0.30157,0.48006,0.1386,1.3643,0.25322,0.62062,-0.38174,0.25942,0.2811,0.24003,0.31488,0.29361,0.21216,0.14796,0.25243,0
899.62,87.486,85.366,17.758,41.392,6.8737,-6.794,434.65,35.261,34.859,6.5555,9.5896,2.3031,-2.3038,16.654,2.0436,1.883,0.8558,68.986,0.13737,-0.137,0.40687,0.030878,0.47135,-0.032746,0.43668,0.071971,0.43821,0.032427,1.5014,0.048895,0.47044,-0.08771,0.38751,0.06451,0.37943,0.077355,0.39846,0.044831,0.365,0.055481,0
835.82,92.176,90.309,7.0933,34.121,2.8004,-2.7872,472.87,32.179,30.752,7.8885,11.036,2.8268,-2.8202,14.141,1.2725,1.1966,0.48081,95.374,0.079498,-0.079454,0.29143,0.21711,0.65296,-0.14872,0.50709,0.38972,0.50643,0.18105,1.3155,0.34687,0.69141,-0.50204,0.21621,0.36992,0.19442,0.40911,0.25757,0.28373,0.066696,0.33447,0
829.11,90.573,89.098,6.9002,33.491,2.8159,-2.7833,446.09,22.422,21.909,6.4002,6.4197,2.5641,-2.5464,14.871,1.4827,1.3903,0.46641,37.293,0.076086,-0.076326,0.36832,0.093813,0.52635,-0.065775,0.46153,0.18248,0.46139,0.079159,1.4426,0.14474,0.54203,-0.21895,0.33481,0.16129,0.32492,0.17895,0.35327,0.12316,0.26988,0.14562,0
805.92,102.45,91.266,6.3813,27.138,2.462,-2.4957,451.97,35.88,27.265,8.4641,7.3475,2.9385,-2.9603,14.225,1.0936,0.92871,0.51683,66.066,0.088919,-0.08883,0.20974,0.30013,0.6185,-0.1316,0.51669,0.61921,0.50091,0.21923,1.2156,0.44199,0.74277,-0.64859,0.12608,0.48192,0.1062,0.52034,0.17024,0.38256,-0.066117,0.43363,0
931.23,75.768,74.467,17.05,29.979,6.9023,-6.8449,474.77,35.724,35.19,7.1036,7.7936,3.0103,-2.9838,15.719,1.0453,0.74518,0.6841,25.609,0.12127,-0.12092,0.14211,0.35721,0.79931,-0.30062,0.49827,0.69201,0.49909,0.32924,1.0722,0.5761,0.83031,-0.90018,-0.021168,0.66249,-0.079214,0.75928,0.070081,0.48694,-0.27379,0.58695,0
928.85,96.843,82.293,17.143,29.096,6.7358,-6.7082,469.39,33.738,27.509,6.0775,5.3652,2.6912,-2.6857,15.807,1.1012,0.78554,0.66539,26.478,0.12066,-0.12049,0.1899,0.30063,0.61447,-0.13277,0.49145,0.62526,0.48718,0.22518,1.1831,0.4483,0.73676,-0.67461,0.093976,0.50267,0.069346,0.54968,0.14378,0.39261,-0.097251,0.445,0
931.45,74.949,73.574,16.963,29.736,6.8133,-6.7659,448.5,14.452,13.676,5.0823,4.4124,2.4478,-2.4213,16.61,1.1562,0.89361,0.68237,32.942,0.12304,-0.12244,0.34087,0.11554,0.55362,-0.097409,0.45623,0.2393,0.45634,0.10655,1.398,0.18045,0.56349,-0.29122,0.28803,0.21432,0.26923,0.24565,0.31757,0.1575,0.20629,0.18989,0
936.13,159.08,151.98,14.826,43.185,5.6278,-5.6113,435.75,31.746,30.684,5.304,8.8286,2.3051,-2.2884,17.1,2.0384,1.7963,0.69555,107.93,0.11095,-0.11149,0.28089,0.16536,0.57162,-0.12347,0.44665,0.34211,0.44741,0.14543,1.3092,0.25386,0.59549,-0.40258,0.21441,0.29663,0.19301,0.3346,0.25105,0.22217,0.098819,0.26443,0
1057.7,243.41,243.14,21.702,52.765,7.409,-7.4114,415.63,58.591,59.56,9.7837,13.587,2.8011,-2.7881,20.19,2.9478,2.567,1.2368,138.51,0.13186,-0.13223,0.25529,0.15123,0.53497,-0.12029,0.40532,0.4153,0.41012,0.15218,1.2779,0.22641,0.5689,-0.43281,0.15872,0.31943,0.12145,0.3807,0.21091,0.22351,0.052861,0.27018,0
1003,202.46,196,19.215,55.738,6.1862,-6.3242,437.89,43.662,34.648,7.5962,10.145,2.7399,-2.8115,18.235,3.1126,2.9927,1.2387,88.556,0.14373,-0.14436,0.30638,0.13023,0.54638,-0.10414,0.43701,0.41097,0.43949,0.14016,1.3616,0.18739,0.58805,-0.40464,0.20455,0.29865,0.1642,0.36277,0.25893,0.20291,0.11239,0.24754,0
859.83,88.776,85.637,17.994,35.327,4.0553,-4.0361,448.45,41.143,40.921,8.0473,13.812,2.3434,-2.3271,15.421,1.7644,1.5558,0.78718,88.936,0.094272,-0.094419,0.34658,0.11844,0.54323,-0.080735,0.46214,0.22008,0.46371,0.098175,1.4067,0.18666,0.56381,-0.27171,0.30668,0.20014,0.29544,0.22053,0.32864,0.15407,0.22506,0.18156,0
864.37,101.13,101.25,17.21,38.204,4.62,-4.6138,422.25,18.172,17.504,5.7213,5.8961,2.451,-2.45,16.342,1.416,1.1632,0.74693,50.369,0.1029,-0.10285,0.2978,0.14395,0.54761,-0.10716,0.44126,0.29732,0.44115,0.12502,1.336,0.21937,0.56794,-0.34442,0.24205,0.25362,0.22451,0.28427,0.2729,0.1913,0.14159,0.22763,0
841,148.54,127.91,17.281,46.803,4.2908,-4.2768,459.74,68.763,60.775,8.5138,27.842,2.4578,-2.4638,14.617,1.533,1.3558,0.71001,125.68,0.094601,-0.094871,0.13387,0.3871,0.67015,-0.16959,0.51982,0.7149,0.51163,0.27216,1.0983,0.58089,0.81207,-0.80878,0.042197,0.60191,0.021753,0.64473,0.090277,0.48538,-0.19915,0.54257,0
843.96,108.77,108.11,15.204,44.934,5.4782,-5.4347,407.76,20.559,19.721,5.8526,6.4503,2.5082,-2.5188,16.504,1.4375,1.2328,0.69558,34.136,0.11996,-0.11992,0.25703,0.17855,0.5541,-0.12168,0.43446,0.36574,0.43413,0.14906,1.2768,0.26886,0.58673,-0.41411,0.1947,0.30521,0.1766,0.33786,0.2289,0.23386,0.071808,0.27553,0
830.74,110.65,108.2,15.077,39.364,5.4217,-5.3894,397.71,21.65,20.412,5.0326,5.002,2.2978,-2.3121,16.649,1.4817,1.2863,0.67824,31.316,0.11772,-0.11767,0.24511,0.18359,0.53999,-0.11629,0.42796,0.38772,0.42661,0.14969,1.2629,0.27176,0.58134,-0.41932,0.18415,0.30937,0.16728,0.3403,0.21734,0.23896,0.059031,0.27975,0
844.08,108.86,108.16,15.218,44.218,5.4698,-5.4425,432.78,32.933,32.461,7.5612,17.651,2.3745,-2.3814,15.624,1.8631,1.6722,0.8645,93.795,0.12085,-0.12081,0.31834,0.13554,0.55127,-0.098539,0.45289,0.27307,0.45344,0.11688,1.3662,0.20869,0.5723,-0.32285,0.26675,0.23782,0.25083,0.26591,0.2952,0.17987,0.17235,0.21358,0
772.69,74.413,74.058,11.187,23.012,4.7726,-4.7328,383.29,24.693,24.246,5.463,11.472,2.1271,-2.1111,16.166,1.5855,1.362,0.72183,103.41,0.10874,-0.10869,0.31601,0.087067,0.4513,-0.052122,0.40155,0.1855,0.40102,0.067683,1.3707,0.12531,0.4712,-0.18992,0.29133,0.1401,0.28515,0.15175,0.30479,0.11052,0.23302,0.1281,0
772.58,74.43,74.061,11.218,23.051,4.7753,-4.7374,381.87,17.645,17.088,4.622,5.2882,2.278,-2.2754,16.159,0.99698,0.81252,0.54829,17.449,0.10818,-0.10838,0.21221,0.21959,0.55088,-0.1295,0.42831,0.44188,0.42632,0.16959,1.216,0.3226,0.60269,-0.47698,0.15087,0.35197,0.13565,0.3808,0.18428,0.27822,0.004375,0.32182,0
737.65,162.97,152.5,26.925,99.567,8.1856,-7.7285,366.57,33.146,30.635,8.3575,10.3,2.3269,-2.2654,15.928,2.417,1.3079,1.9694,199.13,0.15304,-0.14595,0.27022,0.13353,0.44872,-0.057128,0.39839,0.25459,0.39722,0.089107,1.3064,0.19004,0.49577,-0.26359,0.24511,0.19596,0.24029,0.20651,0.25846,0.16206,0.16351,0.17919,0
922.93,93.449,92.698,13.399,31.288,4.9632,-4.9486,416.5,24.988,23.948,6.1825,7.1301,2.3244,-2.3168,17.751,1.7144,1.4796,0.81031,64.597,0.11745,-0.11759,0.32284,0.10148,0.50941,-0.085,0.42379,0.22675,0.42443,0.093753,1.3752,0.15379,0.51896,-0.25689,0.27593,0.18911,0.25918,0.21707,0.3021,0.13876,0.20421,0.1672,0
922.97,93.488,92.725,13.455,31.027,4.9676,-4.9668,406.9,18.437,17.769,4.8772,5.7328,2.2465,-2.2471,18.12,1.3141,1.0479,0.71673,78.456,0.11078,-0.11095,0.25794,0.16138,0.55349,-0.13411,0.4193,0.36704,0.41946,0.14851,1.2789,0.24216,0.56925,-0.40706,0.18415,0.29965,0.15803,0.34339,0.22528,0.22029,0.070158,0.26522,0
902.13,69.997,67.346,13.967,22.762,5.3899,-5.3668,422.06,12.595,11.278,4.9414,3.9921,2.3103,-2.3224,17.084,0.99739,0.72199,0.62968,46.2,0.10428,-0.10459,0.28718,0.14935,0.55139,-0.11625,0.43617,0.31983,0.43592,0.13292,1.3205,0.22667,0.57034,-0.36516,0.22485,0.26886,0.20427,0.30396,0.25943,0.20065,0.12002,0.24004,0
871.71,81.532,78.871,13.117,31.281,5.1651,-5.1386,447.28,18.302,17.595,4.97,6.267,2.4287,-2.4356,15.568,1.0052,0.81818,0.53617,21.813,0.093915,-0.093914,0.2722,0.20086,0.6114,-0.14193,0.4717,0.38231,0.47128,0.1699,1.2909,0.31362,0.64431,-0.46971,0.19978,0.346,0.1782,0.38431,0.2397,0.2639,0.060771,0.31218,0
871.72,81.494,78.83,13.128,31.017,5.166,-5.1434,451.74,18.162,17.434,4.7616,6.1605,2.2846,-2.2831,15.412,0.97643,0.7938,0.52327,24.132,0.092486,-0.092412,0.27333,0.20468,0.61971,-0.14526,0.47675,0.38732,0.47624,0.1735,1.2917,0.32071,0.65287,-0.47951,0.19909,0.3532,0.17685,0.39259,0.24002,0.26915,0.057333,0.31856,0
873.31,80.981,78.29,13.193,31.097,5.1456,-5.141,466.39,34.775,34.884,8.3962,12.265,2.834,-2.8322,14.998,1.1419,0.89168,0.67636,39.307,0.10896,-0.10899,0.22604,0.27523,0.69152,-0.19509,0.49863,0.49899,0.49888,0.2332,1.2106,0.44047,0.73634,-0.64463,0.12628,0.47484,0.096416,0.52776,0.18128,0.3619,-0.064285,0.42826,0
1017.5,177.07,166.87,17.797,106.36,5.4334,-5.4149,467.13,37.624,37.068,6.8191,8.3871,2.4813,-2.4768,17.356,2.2887,1.9849,0.85342,128.27,0.11026,-0.11033,0.32077,0.14385,0.59303,-0.12398,0.46534,0.30893,0.46688,0.13669,1.3678,0.22476,0.60537,-0.37674,0.24888,0.27742,0.22209,0.32263,0.2888,0.2007,0.14691,0.24238,0
1017.4,177.02,166.82,17.808,108.13,5.4428,-5.4227,465.42,34.811,33.543,6.427,7.9225,2.3482,-2.3164,17.38,2.0737,1.7884,0.8431,93.971,0.10418,-0.10396,0.28069,0.18157,0.62366,-0.15582,0.46376,0.38408,0.46511,0.1724,1.3031,0.28561,0.64002,-0.47581,0.18976,0.3504,0.15579,0.40769,0.24021,0.25347,0.061277,0.30591,0
1017.4,177.06,166.89,17.821,106.78,5.4473,-5.4318,472.09,35.324,33.786,5.7797,8.7418,2.4012,-2.411,17.121,1.9232,1.6591,0.77327,68.84,0.10522,-0.10525,0.27754,0.19122,0.6376,-0.16299,0.47037,0.39799,0.47176,0.18089,1.2964,0.30268,0.65529,-0.49923,0.18285,0.36766,0.14778,0.42701,0.23536,0.26643,0.047531,0.32136,0
805.65,151.51,150.79,15.861,57.761,5.384,-5.3969,454.6,62.723,64.077,7.6229,17.111,2.7563,-2.7537,14.148,1.6373,1.433,0.77652,180.06,0.11762,-0.11774,0.19705,0.3197,0.70451,-0.1947,0.51292,0.55797,0.5138,0.25429,1.1694,0.50804,0.77829,-0.71682,0.098976,0.52929,0.072703,0.5792,0.15226,0.41247,-0.11622,0.4793,0
809.04,156.27,156.54,16.1,57.595,5.3938,-5.4009,404.11,35.691,35.133,5.6275,9.7696,2.3333,-2.3264,15.912,2.0456,1.839,0.83781,82.632,0.12072,-0.12107,0.25002,0.19048,0.5602,-0.12195,0.44027,0.39072,0.43973,0.15528,1.2689,0.28429,0.60016,-0.43535,0.18773,0.32124,0.17032,0.35382,0.22169,0.24805,0.058061,0.29009,0
805.68,151.44,150.72,15.93,57.23,5.4028,-5.4035,425.65,41.731,42.098,7.0032,14.138,2.6507,-2.662,15.046,1.7494,1.5264,0.78041,85.097,0.11498,-0.11494,0.23541,0.23614,0.60907,-0.14291,0.46926,0.43919,0.4692,0.18708,1.2393,0.36326,0.66379,-0.52738,0.16401,0.3894,0.14513,0.42544,0.2028,0.30402,0.005205,0.35303,0
919.7,137.69,132.8,15.889,52.559,6.2114,-6.1789,398.28,17.405,16.85,3.9043,5.5854,2.1457,-2.1615,18.397,2.0716,1.8453,0.75842,78.815,0.12317,-0.12264,0.28678,0.1212,0.50055,-0.092035,0.4082,0.27159,0.40837,0.10718,1.3238,0.18007,0.51728,-0.29599,0.23714,0.21804,0.2209,0.2464,0.26458,0.16296,0.15232,0.19434,0
919.72,137.65,132.77,15.942,52.743,6.2502,-6.2047,407.17,16.659,15.841,4.9519,5.6013,2.2981,-2.2997,18,2.088,1.85,0.77432,67.346,0.12781,-0.12699,0.30285,0.1134,0.50269,-0.08596,0.41644,0.24803,0.4166,0.10019,1.3463,0.17004,0.51841,-0.2767,0.25653,0.20384,0.2414,0.23026,0.28212,0.15241,0.17718,0.18173,0
924.19,137.09,131.87,15.952,51.148,6.2492,-6.2054,406.98,17.477,16.461,5.1871,5.5757,2.431,-2.4531,18.098,2.0724,1.8306,0.77762,79.517,0.12845,-0.1281,0.30008,0.11564,0.50478,-0.088468,0.41595,0.25523,0.41612,0.10257,1.3425,0.17309,0.52025,-0.28303,0.2524,0.20847,0.23672,0.23579,0.27877,0.15564,0.17137,0.18576,0
802.93,89.774,85.295,16.81,39.148,6.4254,-6.3923,450.28,26.467,24.24,5.059,6.6121,2.5145,-2.5214,14.235,1.0263,0.66141,0.69289,94.87,0.10808,-0.10764,0.27206,0.22197,0.61334,-0.12974,0.49124,0.39728,0.48871,0.17162,1.2934,0.34356,0.66769,-0.48392,0.20917,0.35726,0.19344,0.38702,0.24334,0.28197,0.061258,0.32599,0
853.54,109.29,106.44,16.944,53.42,6.4335,-6.3842,452.76,26.443,25.874,4.0995,9.2871,2.2856,-2.2969,15.028,1.1804,0.96479,0.62356,36.947,0.11444,-0.11396,0.25108,0.23632,0.64089,-0.15812,0.486,0.43724,0.48526,0.19579,1.2568,0.37072,0.68618,-0.5451,0.17006,0.40186,0.14685,0.44394,0.21443,0.30878,0.007946,0.36304,0
851.45,109.8,107.06,16.746,53.507,6.4179,-6.3756,449.72,28.304,27.544,4.7217,10.312,2.3787,-2.3965,15.091,1.1365,0.92252,0.6123,33.947,0.11453,-0.11413,0.2364,0.25058,0.65002,-0.1679,0.4857,0.4686,0.48474,0.20777,1.2352,0.39149,0.69794,-0.57841,0.15029,0.42641,0.12558,0.47119,0.19745,0.32753,-0.02165,0.38516,0
960.4,131.79,129.45,18.825,82.459,6.7621,-6.7486,431.43,18.354,17.718,4.7391,5.9668,2.3605,-2.3681,17.751,1.8279,1.5636,0.88526,88.979,0.12577,-0.12561,0.30611,0.13047,0.55435,-0.11615,0.43711,0.28916,0.43745,0.12445,1.3467,0.20091,0.5628,-0.34075,0.24047,0.25079,0.21549,0.29196,0.27723,0.1813,0.14788,0.21967,0
957.05,135.86,131.03,18.824,81.595,6.766,-6.7673,431.53,22.661,20.468,5.1336,6.378,2.3449,-2.3629,17.678,1.8342,1.5303,0.89562,92.28,0.12935,-0.12941,0.29262,0.14503,0.55762,-0.11861,0.43845,0.33736,0.43865,0.13745,1.3282,0.22113,0.57782,-0.3783,0.21987,0.27855,0.19284,0.32334,0.26042,0.20167,0.11691,0.24408,0
